550,9490,8726,3930,1114,960,690
551,9490,8726,3930,1114,960,690
552,9528.767577,8703.460711,3884.921423,1127.523573,979.834574,684.5905707
553,9570.446281,8678.77686,3867.765289,1134.558678,1001.22314,686.3305785
554,9572.258065,8700.382134,3966,1113.126551,992.1240695,711.9602978
555,9701.290323,8814.526055,3966,1137.940447,977.235732,743.3912324
556,9649.753311,8930.274834,3976.627483,1117.226821,1004.846026,749.0364238
557,9776.730132,9002.736755,3999.955298,1134.650662,1031.607616,735.9139073
558,9940.551325,9141.149007,4058.791391,1167.759934,1049.806291,740.1009934
559,10088.09272,9295.574503,4137.038079,1196.306291,1066.246689,752.2384106
560,10284.25166,9294.895695,4184.703642,1214.029801,1092.422185,728.9850993
561,10310.74172,9376.021523,4192.981788,1190.850993,1097.389073,740.5745033
562,10338.68377,9390.35596,4212.875828,1224.299669,1106.711921,723.1241722
563,10395.62748,9388.677152,4213.354305,1230.246689,1084.524834,732.6142384
564,10402.68103,9412.735708,4209.527755,1225.527755,1068.583264,737.5973488
565,10366.29801,9430.347682,4204.850993,1231.784768,1071.794702,722.7384106
566,10417.3278,9329.877178,4179.145228,1245.312863,1058.137759,718.7634855
567,10359.23651,9240.250622,4204.041494,1230.375104,1104.610788,735.3609959
568,10393.19967,9274.773819,4181.522784,1241.935377,1096.671085,750.5418393
569,10384.686,9251.877382,4208.869925,1237.494615,1077.393538,759.1516156
570,10409.52775,9174.500414,4233.38691,1248.518641,1071.660315,759.1698426
571,10480.66335,9119.499171,4205.608624,1285.635158,1074.703151,749.2570481
572,10391.02573,9179.372614,4167.837344,1283.419087,1042.185892,727.8141079
573,10178.57759,9134.559336,4156.219087,1241.925311,1055.4639,714.5360996
574,10046.76949,9088.434494,4076.185738,1215.217247,1043.242123,706.6334992
575,10008.00498,8967.915353,4048.008299,1197.993361,1031.99668,712.006639
576,9920.935323,8860.059701,4026.978441,1177.45937,1019.419569,714.7197347
577,9730.406639,8824.418257,3960.813278,1146.582573,999.4506224,704.6373444
578,9722.107884,8701.59668,3944.215768,1118.366805,986.1726141,707.9568465
579,9623.627907,8854.116279,3925.965116,1101.604651,992.5581395,699.8023256
580,9485.037344,8821.721162,3916.80166,1095.40083,983.6033195,707.0970954
581,9469.966805,8747.626556,3903.447303,1094.959336,952.0979253,709.1219917
582,9471.234855,8689.284647,3882.094606,1101.571784,929.5717842,706.6190871
583,9364.982544,8633.566085,3856.369077,1102.548628,945.9102244,709.3965087
584,9406.545303,8523.840399,3834.756442,1034.385702,969.1853699,717.7090607
585,9282.966777,8447.865449,3838.80897,1057.647841,947.5581395,713.1910299
586,9230.509967,8502.054817,3803.340532,1067.792359,938.2076412,704.4152824
587,9192.976705,8479.124792,3740.294509,1069.073211,924.8785358,701.8535774
588,9108.568106,8424.049834,3705.563123,1052.078073,920.845515,693.3853821
589,8972.736492,8473.757273,3730.970906,1016.008313,940.4937656,665.2385702
590,8951.123857,8485.394846,3684.420615,1029.308396,930.5187032,646.9509559
591,8951.574751,8418.285714,3656.803987,1050.471761,918.9767442,675.9202658
592,8937.13239,8391.327227,3677.257286,1052.283097,920.9558701,672.8492923
593,8894.598504,8356.209476,3690.389027,1036.458853,921.2917706,672.319202
594,8821.780549,8339.783874,3682.043225,1021.695761,910.0864505,668.1296758
595,8753.004163,8391.825146,3669.490425,1026.228143,890.6844296,639.8251457
596,8847.925062,8405.147377,3651.172356,1027.893422,895.6802664,653.1473772
597,8849.331671,8353.092269,3645.331671,1017.107232,905.3366584,646.2194514
598,8822.387687,8268.480865,3652.537438,1024.976705,892.1447587,641.5607321
599,8890.075,8216.035,3652.69,1005.45,892.62,653.275
600,8942.577371,8243.450915,3627.274542,987.4209651,893.3327787,664.4925125
601,8804.15,8336.625,3584.235,1021.98,862.15,649.57
602,8820.816667,8294.958333,3632.568333,975.3133333,878.8166667,646.2366667
603,8800.359401,8312.094842,3666.915141,1001.369384,890.8202995,652.1830283
604,8917.487094,8394.27144,3636.048293,1003.946711,867.3655287,661.2639467
605,8962.026689,8444.877398,3624.038365,1011.406172,878.9541284,657.2260217
606,8918.722731,8484.118235,3646.35637,1018.920899,917.6336386,652.5345545
607,8939.87156,8571.497915,3660.522102,1001.050876,919.8982485,666.6371977
608,9049.963303,8456.402002,3680.538782,1009.391159,903.2176814,639.9482902
609,8885.10408,8481.961699,3674.281432,1030.068276,897.3688593,684.3114072
610,8883.61,8482.32,3669.58,1022.69,898.42,670.17
611,8855.45955,8425.988324,3639.923269,1004.348624,902.6321935,652
612,8781.815,8364.725,3595.28,1003.445,898.915,653.635
613,8787.123539,8375.816361,3578.572621,1031.66778,881.0601002,655.8797997
614,8748.72621,8405.866444,3630.325543,1013.30384,889.4073456,639.1853088
615,8783.190992,8349.114262,3612.305254,999.6030025,913.2443703,645.7481234
616,8852.497496,8397.809683,3634.03005,1006.96828,895.6260434,666.2804674
617,8897.099249,8480.820684,3676.847373,1010.450375,881.7748123,676.2251877
618,8900.440735,8504.759599,3689.654424,1001.552588,895.1185309,668.9966611
619,8887.125938,8438.503753,3641.549625,993.6030025,921.9733111,654.8740617
620,8895.466222,8471.864887,3638.213511,1020.29191,906.9608007,646.5337781
621,8953.864662,8549.067669,3680.225564,1039.203008,904.4360902,639.7443609
622,8992.207012,8600.843072,3703.103506,1040.298831,915.1035058,649.1035058
623,9006,8595.593985,3698.248956,1031.672515,909.3450292,672.2706767
624,8995.662771,8568.297162,3684.57429,1019.979967,905.4858097,696.0200334
625,8962.187291,8568.140468,3688.929766,1010,930.0936455,703.5585284
626,8908.675585,8528.006689,3708.996656,1010,903.3377926,686.8361204
627,9010.674457,8521.24207,3656.076795,1033.789649,882.9682805,678.0701169
628,9038,8574.073579,3638.227425,1013.591973,901.8929766,668.4548495
629,8943.243108,8526.106934,3669.443609,1007.289891,905.7811195,664.9289891
630,8849.608696,8464.016722,3682.185619,1019.200669,894.6003344,662.3979933
631,8892.536341,8551.974937,3629.081036,1020.093567,895.4553049,655.9064327
632,8932.636591,8662.250627,3672.522974,1008.397661,892.1136174,667.6023392
633,8924.299582,8664.383264,3630.348117,999.916318,908.167364,658.2995816
634,8867.804184,8596.900418,3666.453556,983.8058577,915.8711297,676.6460251
635,8858.227425,8604.307692,3646.729097,984.6688963,911.2575251,666.8093645
636,8913.07113,8595.39749,3626.619247,1011.807531,904.6359833,644.6359833
637,8979.359532,8503.080268,3683.668896,1045.978261,905.0719064,647.8561873
638,8954.27592,8660.270903,3660.257525,1024.23913,900.0551839,657.8896321
639,8808.217755,8499.651591,3713.011725,984.241206,903.3132328,666.2830821
640,8869.884422,8549.894472,3696.035176,1001.301508,896.0100503,653.3517588
641,8913.989967,8564.864548,3660.894649,1011.989967,890.9949833,646
642,8933.726739,8542.073764,3650.86337,1013.394803,887.9631182,646.6789606
643,8949.721943,8527.273032,3663.832496,1018.934673,888.9715243,649.7755444
644,8828.87364,8423.054393,3626.301255,1014.030126,911.4878661,658.1205021
645,8877.409205,8481.631799,3643.037657,1015.703766,883.0359833,664.8150628
646,8841.84912,8414.73596,3585.29254,1028.417435,880.75943,663.24057
647,8832.552764,8461.256281,3573.829146,1015.005025,865.1155779,653.5577889
648,8817.148365,8493.067896,3594.578374,994.3453479,861.6948868,651.116513
649,8765.852473,8439.517184,3604.777871,989.2221291,881.5926236,659.1852473
650,8737.439597,8503.973154,3601.845638,993.7483221,879.4966443,656.6711409
651,8806.231544,8423.436242,3638.758389,988.7147651,869.4295302,670.0939597
652,8747.015075,8475.236181,3560.643216,985.1256281,853.6281407,659.0653266
653,8639.785235,8458.778523,3584.818792,976.2013423,855.7986577,664.0268456
654,8608.469799,8380.85906,3584.067114,979.5033557,853.2885906,665.6644295
655,8657.06119,8336.409053,3514,981.3260687,843.285834,647.0813076
656,8654.146096,8416.730479,3514.292191,944.2367758,854.4382872,621.5062972
657,8655.825357,8425.126784,3517.650714,992.9353484,859.4760705,661.8085642
658,8610.899329,8376.389262,3554.080537,975.4496644,863.0067114,644.9530201
659,8532.161209,8332.809404,3555.360202,971.5465995,865.1821998,638
660,8561.162752,8351.011745,3536.810403,974.8607383,869.442953,646.6073826
661,8647.219144,8394.070529,3533.858942,974.9219144,868.070529,651.5314861
662,8620.840336,8374.504202,3571.02521,971.1260504,851.7815126,636.8403361
663,8642.689076,8347.613445,3609.680672,964.4033613,850.1008403,658.6890756
664,8756.073887,8510.164568,3624.628044,987.6775819,881.5701092,633.1654072
665,8730.65827,8569.093199,3597.813602,972.6179681,867.3602015,646.1242653
666,8768.336134,8585.502521,3617.512605,975.005042,863.3781513,642.994958
667,8868.410084,8604.514286,3640.826891,997.5663866,867.8151261,644.5546218
668,8894.255462,8613.939496,3598.598319,1008.803361,854.2991597,686.2991597
669,8783.331092,8534.947899,3601.959664,1002.080672,855.9798319,687.9798319
670,8670.652649,8445.91926,3608.647603,1010.309504,862.647603,644.7905803
671,8725.820319,8423.974811,3530.837951,997.240974,862.6582704,657.4676742
672,8649.456686,8431.204373,3522.681245,971.5912532,850.7502103,657.7729184
673,8525.199327,8385.730866,3541.428091,962.4575273,848.4575273,648.7047939
674,8499.936027,8279.804714,3516.191919,967.1582492,857.8047138,653.4848485
675,8506.092515,8255.907485,3493.130362,923.2010093,832.353238,667.1522288
676,8460.676198,8301.323802,3520.043734,951.7964676,840.7636669,646.9671993
677,8419.535354,8185.93771,3467.994949,935.8956229,857.7962963,619.5875421
678,8335.588235,8126.823529,3425.882353,948.1176471,845,620.0588235
679,8306.388889,8102.806397,3429.991582,960.0016835,833.1986532,633.5976431
680,8367.259259,8088.213805,3436.808081,945.7861953,838.96633,646.8316498
681,8431.331087,8116.83572,3364,920.1668071,839.6647009,661.1659646
682,8404.372367,8145.47936,3364,921.851727,816.0758214,652.7413648
683,8320.626263,8074.30303,3391.636364,946.5656566,850.8484848,619.7575758
684,8235.005897,8054.439764,3417.078349,917.4035383,825.4035383,631.957877
685,8204.143218,8095.811289,3416.237574,902.1432182,824.6200505,636.0471778
686,8201.026116,8105.668071,3387.25695,923.2047178,846.6925021,631.6663858
687,8180.720067,8021.971332,3355.573356,946.4266442,833.7251265,647.2512648
688,8246.487352,8070.875211,3377.495784,924.5042159,832.0387858,630.3878583
689,8238.122999,8116.446504,3427.385004,937.1693345,827.0614996,634.9385004
690,8243.986521,8070.094356,3386.087616,920.0336984,806.0336984,637.3310868
691,8242.915683,8026.747049,3393.556492,912.0337268,809.2192243,650.2023609
692,8199.323777,8009.890388,3400.684654,914,813.5615514,649.3423272
693,8149.035413,8029.372681,3359.064081,919.0640809,798,629.1163575
694,8234.708861,8121.291139,3379.620253,940.0759494,798.3797468,641.0886076
695,8206.016878,8016.649789,3371.181435,941.7637131,806.8185654,620.835443
696,8171.544688,7983.146712,3352.596965,920.2462057,800.7487352,642.6543002
697,8078.096203,8031.740084,3373.301266,938.1637131,798,648.5873418
698,8053.139241,8014.577215,3365.113924,939.843038,805.4278481,654.2531646
699,8087.016034,7975.151055,3331.183122,906.3037975,815.4869198,663.4345992
700,8050.29223,8095.748311,3350.190878,889.4273649,810.7837838,654.1908784
701,8204.008446,8009.599662,3334.988176,935.035473,783.7567568,638.9881757
702,8067.240506,8015.046414,3332.421941,925.3755274,793.0464135,647.4683544
703,8088.810811,8011.665541,3280.057432,908.0641892,787.1317568,636.0641892
704,8143.121622,8001.307432,3305.452703,911.472973,784.8682432,623.2195946
705,8152.385135,7975.932432,3352.449324,921.4189189,795.7432432,630.9054054
706,8114.945055,7957.080304,3325.338969,919.682164,810.3262891,656.3262891
707,8051.013514,8051.189189,3331.670608,937.7466216,801.7212838,648.0760135
708,8118.581081,7997.135135,3309.711149,920.8547297,783.1402027,653.1435811
709,8124.380389,7931.803888,3339.717667,937.6686391,795.4539307,645.5705833
710,8100.071066,7954.050761,3326.588832,915.2994924,786.6497462,639.8071066
711,8085.939138,8017.210482,3296.121724,897.8782756,783.4539307,638
712,8098.21978,8041.168216,3282.086221,913.8275571,793.6939983,639.9137785
713,8117.323181,7996.538071,3275.153976,925.1539763,780.8460237,643.8003384
714,8110.554992,8021.918782,3266.693739,916.6937394,789.3062606,621.8037225
715,8106.893401,8047.299492,3300.172589,895.8071066,780.680203,627.7664975
716,8099.778529,8054,3329.908707,898.7100592,785.465765,631.2442942
717,8097.871404,8099.849408,3287.729272,900.2571912,794.678511,621.7072758
718,8098.743438,8106.76376,3260.555461,904.7959356,801.8848434,617.5393734
719,8103.394247,8038.541455,3335.678511,923.678511,806.321489,637.857868
720,8142.433898,8198.894915,3334.677966,922.040678,808.1355932,657.9322034
721,8196.671186,8310.759322,3419.423729,927.1254237,825.0847458,649.4576271
722,8402.308213,8433.762913,3442.413209,942.0220152,842.0220152,648
723,8594.472481,8607.290432,3488.731583,956.765453,860.0524979,666.6265876
724,8792.904318,8802.386113,3565.03641,993.9881456,892.8856901,676.4758679
725,9009.712108,9001.22608,3665.163421,1046.274344,927.5173582,671.3784928
726,9164.766102,9189.071186,3775.654237,1065.647458,926.5288136,680.2372881
727,9152.901695,9083.986441,3714.637288,1062.257627,931.6135593,663.2881356
728,9037.577608,8988.223919,3725.6743,1032.21883,917.8931298,691.7811705
729,8923.993226,8938.767146,3702.243861,1031.569856,895.0753599,693.6917866
730,8931.444068,8896.277966,3683.132203,1027.39661,883.0440678,691.9118644
731,9005.02799,8917.46056,3671.531807,1015.394402,870.2748092,692.697201
732,9057.711864,8989.254237,3666.161017,1007.220339,847.7372881,685.1355932
733,9173.378608,8822.344652,3722.302207,994.6791171,856.5517827,661.8726655
734,8908.52292,8756.13073,3654.390492,1021.843803,878.62309,656.7792869
735,8754.491942,8467.258694,3616.700594,982.8956743,856.1374046,666.057676
736,8523.02799,8360.266327,3499.482612,950.1357082,821.0703986,675.6658185
737,8326.081425,8263.287532,3375.694656,929.7048346,796.1933842,663.4096692
738,8221.028037,8090.813934,3326.008496,906.9379779,798.0084962,634.7323704
739,8116.987277,7996.195081,3344.524173,875.5487701,819.2315522,623.3842239
740,7943.959288,7982.624258,3273.277354,872.1560645,768.3409669,648.8295165
741,7952.196944,7967.42275,3286.196944,883.3378608,777.3378608,646.7606112
742,7956,8006.159593,3296.587436,884.6825127,773.4125637,638.0950764
743,8047.452846,8118.436703,3306.096856,882.9838573,796.4197111,634
744,8176.776551,8235.330501,3334.17672,897.7383178,822.7153781,637.5768904
745,8253.314092,8285.928693,3381.870968,928.0713073,827.3140917,639.0288625
746,8263.642857,8279.908163,3408.408163,934.877551,836.6326531,623.1428571
747,8227.928571,8308.819728,3353.986395,917.8707483,785.6122449,670.7619048
748,8248.197111,8206.137638,3364.635514,887.2659303,801.1724724,651.8028887
749,8237.826678,8163.519116,3334.864911,908.28887,797.0960068,642.7884452
750,8151.315208,8168.929482,3325.661852,918.8920986,788.1784197,646.5539507
751,8063.833191,8122.115745,3327.945532,904.333617,792.1106383,642.8340426
752,8056.118946,7982.560748,3300.68989,893.1860663,798.808836,626.3772302
753,7992.238298,7964.714894,3325.797447,878.0714894,760.1548936,649.8808511
754,8026.280851,8066.842553,3296.861277,888.2842553,782.2825532,632.8595745
755,8084.353741,8093.904762,3324.544218,891.414966,790.244898,654.0544218
756,8128.312925,8166.054422,3342.462585,904.2721088,802.0408163,667.3469388
757,8298.0954,8368.006814,3402.422487,949.9795571,823.9011925,665.911414
758,8603.867347,8661.102041,3490.244898,1011.367347,843.4795918,674.0510204
759,8902.434043,8953.489362,3532.782979,1041.319149,850.187234,715.106383
760,9321.157447,9472.638298,3723.421277,1066.851064,913.1659574,723.6170213
761,9484.795571,9588.734242,3844.25724,1069.626917,911.1192504,706.1039182
762,9454.190638,9357.421277,3858.035745,1060.694468,887.4008511,704.6587234
763,9090.327366,8931.391304,3690.813299,1014.670077,856.3682864,690.5012788
764,8590.585532,8496.488511,3468.508936,950.9412766,820.3114894,659.0485106
765,8217.171355,8200.966752,3339.401535,906.2404092,782.5217391,634.398977
766,8035.166951,8090.614991,3313.53833,900.1448041,756.4344123,648.1175468
767,7931.248722,8003.732538,3284.577513,901.8483816,761.5451448,625.9710392
768,8064.780239,8022.383305,3299.07155,872.5127768,768.2078365,634.8637138
769,7938.87127,8121.73231,3298.973572,881.5924979,781.3094629,641.769821
770,7873.657289,8123.109974,3254.649616,886.230179,778.3836317,650.7314578
771,7883.977816,8045.3157,3220.675768,874.662116,769.334471,651.3276451
772,7829.761499,7991.315162,3228.942078,859.8960818,768.6422487,638
773,7818.540956,7932.390785,3172.307167,842.6911263,754.0767918,638.2303754
774,7786.117747,7852.186007,3179.133106,858.0494881,755.7832765,643.3498294
775,7887.773038,7877.754266,3191.918089,871.9180887,761.9590444,644
776,7902.467577,7942.634812,3151.738908,860.4488055,743.6638225,634.4300341
777,7848.279863,7977.09727,3180.677474,842.778157,754.3737201,629.8054608
778,7817.667235,7985.138225,3242.861775,837.6552901,782.78157,631.390785
779,7853.264505,8012.313993,3218.843003,848.5255973,776.2116041,626.2116041
780,7828.422222,8046.066667,3202.555556,862.1777778,756.2222222,606.3777778
781,7860.900855,8051.194872,3245.290598,875.8529915,773.3162393,635.4376068
782,7923.542662,8177.15529,3214.59727,869.3686007,742.9129693,652.947099
783,7968.920581,8207.663535,3222.920581,864.853971,756.3586678,655.7079419
784,8039.846154,8225.623932,3234.871795,878.5299145,773.4358974,665.965812
785,8141.871904,8331.689155,3255.617421,894.618275,770.5636208,671.8548249
786,8245.179487,8498.892308,3332.794872,887.0871795,772.2717949,647.0871795
787,8416.119658,8529.661538,3375.529915,893.9247863,773.9811966,653.9247863
788,8428.134927,8697.226302,3355.730145,904.1349274,799.3373185,691.1614005
789,8411.806672,8851.154833,3448.564585,942.3866553,810.9974337,686.8041061
790,8594.654142,9066.942784,3515.494449,962.4338173,837.2775406,700.8437233
791,8882.935843,9220.898204,3568.711719,979.0846878,865.8135158,713.546621
792,9079.057314,9297.878529,3642.961506,998,886.8725406,699.4268606
793,9122.923077,9445.128205,3718.717949,998.2393162,904.3247863,676.9401709
794,9415.230769,9624.615385,3723.846154,999.9487179,892.3589744,726.5128205
795,9568.503425,9723.013699,3846.910959,1006.643836,898.6438356,704.7465753
796,9762.65355,9895.676647,3976.280582,1038.186484,921.9538067,717.8374679
797,9992.865697,9996.323353,4014.253208,1058.497861,965.572284,727.0829769
798,10185.9726,10099.06849,4023.479452,1074.328767,976.5205479,729.5890411
799,10290.64384,10249.45205,4077.876712,1100.136986,952.5342466,732
800,10358.57143,10362.67237,4158.029085,1127.810094,961.9709153,732
801,10644.28571,10477.30026,4142.631309,1110.701454,977.3686912,732
802,10667.50471,10557.6024,4217.602399,1133.009426,958.277635,738.5741217
803,10731.07969,10560.42674,4272.005141,1154.287918,970.2879177,761.7172237
804,10811.32592,10548.65355,4338.11805,1151.3071,987.6236099,749.5449102
805,10876.31877,10544,4383.125964,1143.562982,1003.81491,735.470437
806,10931.29846,10543.50429,4376.102916,1126.667238,1015.008576,749.4528302
807,10981.14897,10516.93664,4342.527397,1075.160959,1009.683219,766.2106164
808,10811.62842,10313.16952,4363.075342,1133.380137,990.8476027,767.9229452
809,10733.56261,10258.13379,4270.629503,1101.600343,971.9811321,746.7049743
810,10680.13882,10134.41645,4251.352185,1103.465296,966.6478149,777.1568123
811,10474.22642,9959.440823,4149.578045,1083.461407,962.7993139,771.5951973
812,10219.34704,9768.817481,4049.059126,1060.437018,935.7737789,739.496144
813,9976.291845,9605.735622,4002.23176,1050.55794,901.4729614,724.9613734
814,9654.600343,9477.41681,3902.003431,1024.171527,908.3842196,738.7238422
815,9546.538593,9182.391081,3821.385935,993.296741,879.2246998,728.432247
816,9273.924464,9087.76824,3750.569957,972.2643777,864.8429185,716.4875536
817,9026.931389,8921.737564,3727.838765,954.3979417,837.516295,700.3979417
818,8830.360515,8803.562232,3674.485837,930.7776824,832.4583691,709.0695279
819,8691.20515,8714.412017,3600.274678,921.5519313,820.551073,734.6901288
820,8607.242268,8602.706186,3549.448454,917.7525773,803.185567,737.1597938
821,8556.985408,8478.181974,3530.355365,884.0549356,823.606867,688.2283262
822,8459.13133,8404.362232,3442.801717,899.5055794,775.5381974,689.9450644
823,8284.834335,8310.600858,3438.338197,878.3965665,775.6618026,685.0145923
824,8215.506873,8272.683849,3404.886598,874,777.3797251,699.1769759
825,8151.690722,8247.530928,3358.159794,857.5309278,761.5309278,689.5309278
826,8041.750645,8223.380911,3318.1135,870.9561479,752.9011178,685.8022356
827,7938.927835,8216.041237,3288.886598,896.5979381,764.8247423,690.3505155
828,7941.599312,8217.893379,3262.218401,855.6732588,773.6732588,667.5631986
829,7979.432502,8082.037833,3250.180567,826.4385211,744.4385211,691.638865
830,7876.672399,8125.735168,3236.448839,858.1840069,747.3877902,681.8366294
831,7884.835052,8109.989691,3252.360825,849.8762887,739.5257732,672.9381443
832,7831.50129,8089.815993,3252.079106,863.2364574,719.0266552,672.2631126
833,7814.347377,8049.652623,3226.421324,860.1238177,711.1074807,658.677558
834,7827.714286,8007.714286,3211.428571,838.8571429,720.8571429,647.7142857
835,7752.585198,8004.392427,3237.07401,843.9518072,728.292599,673.7555938
836,7756.468158,7960.44062,3219.421687,832.2340792,730.1376936,684
837,7814.987952,8015.518072,3147.13253,861.4939759,747.3493976,684
838,7711.879518,7907.511188,3173.858864,828.141136,732.5266781,672.3511188
839,7700.635659,7875.782946,3176.217054,814,730.7131783,663.2868217
840,7743.604131,7901.10327,3161.698795,807.6987952,738.5008606,678.0034423
841,7744.503015,7907.696813,3156.487511,811.8156761,745.2437554,693.1593454
842,7695.235142,7864.28596,3166.134367,832.1429802,743.5211025,672.4875108
843,7730.940568,7809.276486,3182.170543,803.8656331,721.0594315,646.3359173
844,7755.057709,7842.006891,3083.979328,800.4203273,696.9422911,654.9491817
845,7620.36348,7797.600345,3096.199828,819.66236,725.7622739,665.0749354
846,7521.606897,7800.543103,3099.055172,809.9293103,705.0948276,681.5982759
847,7488,7757.307494,3064.335917,792.3238587,694.6356589,667.9310939
848,7470.248276,7670.689655,3051.165517,780.5862069,699.2206897,648.7793103
849,7424.2,7633.055172,3069.213793,776.8482759,692.4413793,657.5931034
850,7371.972414,7683.875862,2980.131034,788.262069,701.2137931,656.3931034
851,7292.662069,7576.97931,2981.855172,791.7103448,690.8689655,661.5655172
852,7415.615186,7534.805867,3038.904228,788.838654,712.1294219,646.1932701
853,7299.905172,7559.934483,3030.506897,782.7793103,706.2534483,648.5258621
854,7248.845557,7590.362381,3000.486626,783.0905953,695.8792062,654.0603969
855,7303.965487,7569.499569,2976.44176,783.732528,682.1742882,665.0698878
856,7310.521139,7513.592752,2966.407248,780.4814495,675.6289905,674.2226057
857,7188.484901,7501.858499,2969.237274,782.4141501,702.2726488,655.5858499
858,7209.192407,7467.345988,2929.547886,785.8654012,671.2113891,652.1345988
859,7125.352332,7519.112263,2906.423143,781.0207254,679.9585492,633.7426598
860,7177.283865,7464.873167,2913.085418,798.013805,683.3856773,627.2286454
861,7165.734024,7429.326425,2960.265976,791.5405872,698.4594128,629.3367876
862,7121.088083,7425.678756,2962.103627,777.4818653,715.8756477,647.1088083
863,7104.867012,7429.132988,2915.734024,785.8963731,711.537133,659.5025907
864,7109.640449,7429.061366,2912.057044,813.355229,681.1754538,637.1184097
865,7153.955095,7412.044905,2923.685665,798,687.9775475,632.2918826
866,7150.500864,7415.499136,2899.506045,798,686.2504318,654.7443869
867,7115.977509,7444.105536,2856.060554,787.6453287,660.8529412,659.4792388
868,7182.539326,7435.87554,2844.416595,784,677.3742437,663.624892
869,7166.542783,7437.116681,2860.053587,771.8202247,678.0726016,670.684529
870,7088.66782,7441.342561,2889.321799,764.6608997,660,679.3304498
871,7068.18669,7417.624892,2909.666379,781.1668107,663.9585134,684.4165946
872,7006.588235,7411.114187,2882.754325,793.2525952,679.5017301,677.3771626
873,7153.647059,7454.366782,2865.453287,782.8719723,672.5813149,668.7266436
874,7140.665514,7454.833189,2873.500432,775.6663786,657.7493518,652.1659464
875,7064.282496,7465.838821,2907.570191,776.6308492,669.7850953,659.8388215
876,7069.868512,7452.112457,2875.851211,778,678,670.1868512
877,7099.455017,7449.536332,2859.188581,774.115917,678,675.5536332
878,7078.89697,7460.301299,2903.522078,781.191342,683.5809524,680.0294372
879,7060.865052,7409.733564,2902.986159,814.2698962,697.3737024,683.1349481
880,7081.626298,7335.3391,2866.653979,772.7474048,678.3425606,662.3737024
881,7082,7347.62706,2881.330442,787.3304423,684.8135299,653.4830876
882,7066.209524,7400.242424,2899.790476,775.6450216,674.5160173,666.3549784
883,7142.864069,7424.668398,2893.161905,775.8354978,668.8329004,669.6658009
884,7131.901299,7443.277922,2898.379221,767.4181818,673.3922078,667.1012987
885,7037.791847,7448.10928,2917.262793,757.6825672,679.3686036,667.8941891
886,7029.873484,7411.051993,2908.298094,773.2911612,676.1715771,676.0225303
887,7075.284229,7381.679376,2855.209705,786.9133449,667.9012132,694.4939341
888,7097.814558,7411.142114,2841.344887,767.8492201,666.1681109,703.1594454
889,7024.880416,7335.750433,2888.514731,776.9549393,673.8249567,636.7053726
890,7015.703125,7306.197917,2861.689236,785.2013889,687.703125,664.8125
891,7004.410745,7347.52513,2867.935875,779.7227036,676.4107452,681.7227036
892,7041.021683,7378.473547,2906.294883,775.0737207,658.4631396,675.5368604
893,7110.895833,7367.048611,2906.364583,777.9861111,661.0347222,676.9930556
894,7074.378144,7391.351258,2847.760624,770.0849957,673.8456201,672.5637467
895,7135.089332,7415.635733,2846.026019,756.2081526,658.2341717,662.1561145
896,7103.53686,7441.628794,2909.217693,767.9601041,668.2515178,653.4570685
897,7050.29192,7472.022589,2912.771503,777.228497,670,696.8166811
898,7089.882047,7441.836947,2875.743278,774.0936687,673.5437988,706.9124024
899,7127.25,7445.166667,2881.333333,766.3333333,687,697.4166667
900,7152.747176,7505.520417,2923.186794,766.5734144,695.4265856,695.9200695
901,7217.078125,7555.953125,2926.28125,775.609375,682.484375,706.734375
902,7243.454387,7561.97046,2884.469157,775.3953084,669.6490009,714.1946134
903,7318.172024,7534.168549,2973.08775,794.5091225,692.2380539,662.0660295
904,7407.308427,7652.156386,2991.214596,779.9791486,687.5916594,683.6333623
905,7492.305821,7728.889661,2987.301477,810.8323197,687.3397046,714.1146829
906,7568.208696,7737.982609,3012.034783,845.2521739,720.3478261,724.9217391
907,7681.951347,7851.768897,3094.801043,847.7497828,739.8331885,721.5499566
908,7881.796699,8079.45265,3184.434405,844.4118158,734.0973067,731.8575152
909,8163.08094,8233.091384,3226.704961,886.0939948,757.8955614,765.6605744
910,8444.50391,8443.546481,3407.980886,910.4952215,804.1320591,752.5282363
911,8786.814944,8735.466551,3512.238054,936.5595135,811.0825369,780.3301477
912,9199.143603,9100.349869,3651.402959,1006.478677,884.5221932,768.8912097
913,9564.335652,9393.565217,3767.026087,1046.756522,910.5008696,769.0017391
914,9822.033101,9632.885017,3860.573171,1063.947735,925.8780488,799.7560976
915,9892.998261,9761.267826,3888.034783,1076.589565,938.5356522,814.0886957
916,9724.74216,9735.921603,3839.61324,1077.61324,923.2526132,794.2491289
917,9387.111304,9616.286957,3785.464348,1041.21913,879.0052174,807.1443478
918,9201.024348,9277.156522,3618.507826,1018.610435,854.6573913,800.1878261
919,8711.195122,8903.54878,3415.670732,951.8902439,808.2317073,771.1829268
920,8150.109661,8566.590078,3299.582245,901.227154,766.9712794,732.9712794
921,7800.156931,8241.935484,3133.625109,845.9232781,738.6765475,714.1063644
922,7577.345518,7914.127067,3031.712794,811.5543951,711.4255875,723.8120104
923,7345.972101,7677.520488,2980.256321,798.6992153,687.3618134,737.3496077
924,7104.771105,7559.625762,2884.238468,784.3498695,678.4055701,725.510879
925,6968.378378,7333.898867,2835.510026,769.2676548,679.853531,700.146469
926,6806.216216,7285.07585,2805.86748,760.5492589,678.1098518,701.8901482
927,6836.810105,7291.794425,2772.984321,753.4703833,650.2491289,710.1620209
928,6803.314136,7222.397906,2778.39267,760.2617801,638.4921466,674.8219895
929,6792.961672,7149.672474,2738.071429,749.4372822,634.8797909,679.2839721
930,6726.570681,7156.010471,2714.958115,734.5445026,634.8638743,688.2251309
931,6682.989529,7181.027923,2727.736475,737.3089005,646.9633508,693.2268761
932,6792.67306,7133.203139,2719.061901,752.2301656,670.5841325,726.2301656
933,6739.21815,7181.082024,2726.541012,744.1954625,664.6841187,716.7294939
934,6725.256545,7271.832461,2771.91623,747.6858639,676.9005236,694.0418848
935,6863.755672,7283.176265,2768.059337,728.9424084,643.061082,706.2931937
936,6901.333333,7334.666667,2762,728,644.6666667,708.6666667
937,6977.563319,7379.430568,2772.953712,735.3973799,659.7152838,713.3973799
938,7041.17452,7456.260035,2825.273997,747.4293194,661.3961606,711.3961606
939,7020.579913,7569.987773,2884,759.7135371,659.9965066,690.5764192
940,7005.727273,7645.090909,2889.727273,763.3636364,680.6363636,669
941,7186.055846,7673.657941,2919.933682,760.0663176,683.9336824,707.3263525
942,7240.157068,7717.287958,2918.188482,761.8115183,682.1884817,742.2303665
943,7205.454545,7664.300699,2910.202797,777.5944056,669.5244755,719.4895105
944,7281.615385,7640.153846,2897.538462,783.3076923,683,687.1538462
945,7204.562445,7636,2871.954585,778.7248908,667.7344978,685.6052402
946,7069.926573,7559.767483,2870.048951,776.4073427,654.8269231,708.8391608
947,7030.695804,7427.276224,2882.435315,770.0874126,665.7972028,718.0874126
948,7001.97028,7378.298951,2846.917832,743.4020979,662.6905594,699.1748252
949,6886.15748,7376.787402,2815.874016,740.0944882,677.4330709,739.480315
950,6817.91601,7257.802275,2737.133858,743.5940507,656.4356955,720.2327209
951,6806.906387,7219.251094,2714.07874,759.4680665,657.0936133,707.1723535
952,6818.943231,7223.648908,2712.588646,741.9965066,651.5283843,696.2340611
953,6798.339755,7223.737303,2732.788091,732.6094571,650.6094571,689.9124343
954,6751.948381,7213.233596,2764.299213,736.9860017,644.6587927,686.4111986
955,6726.535902,7185.847636,2777.285464,736.732049,636.9019264,698.1611208
956,6745.774278,7132,2744.832896,732.1399825,650.5914261,729.4943132
957,6756.910683,7133.775832,2693.229422,755.7723292,654.1366025,692.1366025
958,6791.936953,7202.077058,2740.514886,747.0157618,659.3905429,697.3905429
959,6847.089317,7344.690018,2780.059545,732.0665499,653.8073555,713.4816112
960,6777.460123,7309.865031,2753.582822,742.3067485,648.0981595,707.595092
961,6828.833625,7240.528897,2770.838879,759.4728546,648.1050788,717.7880911
962,6889.472855,7219.62697,2782.295972,759.9614711,647.5884413,729.5884413
963,6850.555653,7284.120947,2742.776512,752.4452235,644.5556529,725.4443471
964,6851.074496,7417.042945,2733.563541,756.2874671,640.7554777,724.3085013
965,6848.760736,7345.93865,2787.411043,715.1656442,613.595092,725.2638037
966,6927.638913,7344.185802,2827.726556,748.4697634,659.1691499,704.2296231
967,6868.557895,7392.621053,2794.357895,734.7473684,629.4947368,722.3894737
968,6909.474145,7310.841367,2803.824715,720.7484663,645.1113059,720.0701139
969,6955.042945,7356.555653,2771.020158,754.681858,659.0744961,716
970,6953.094737,7425.578947,2764.638596,759.0175439,661.6561404,727.5929825
971,6961.122807,7396.933333,2799.263158,734.8912281,659.922807,733.5157895
972,7035.705263,7379.768421,2785.747368,775.6631579,645.6210526,712.0421053
973,7049.891133,7428.456541,2824.456541,772.4477612,626.739245,731.0869183
974,6970.874451,7437.236172,2833.236172,742.5970149,679.4170325,713.5276558
975,6997.666374,7396.317823,2813.158911,759.237928,667.9683933,737.6505707
976,6988.347368,7406.368421,2840.589474,772.1473684,661.2842105,734.4947368
977,7017.850746,7442.718174,2870.472344,770.4337138,665.5662862,730
978,7085.407733,7474.439367,2871.560633,768.6098418,661.3005272,734.3497364
979,7113.940299,7498.656716,2857.373134,769.4925373,645.6119403,733.1044776
980,7084.150877,7507.849123,2859.442105,759.4105263,646.3263158,719.9122807
981,7148.523726,7447.177504,2873.45167,739.7258348,689.0404218,728.1370826
982,7206.520211,7436.632689,2866.421793,736.2108963,676.7381371,729.8945518
983,7190.175747,7426.087873,2847.827768,760.7803163,676,751.4762742
984,7119.753954,7377.486819,2828.495606,775.8664323,680.228471,715.1247803
985,6999.729112,7355.664028,2796.30431,772.9920844,657.4722955,709.6798593
986,6937.704745,7319.731107,2786.335677,762.4428822,643.7047452,723.5571178
987,6911.208443,7260.156552,2776.156552,742.9991205,657.5795954,734.7897977
988,6875.493404,7241.060686,2730.46438,717.5567282,671.5672823,736.4643799
989,6942.43761,7291.224956,2709.254833,716.8084359,652.5641476,711.8189807
990,6807.112478,7145.355009,2754.949033,723.8383128,622.6871705,727.6362039
991,6745.517606,7172.961268,2771.480634,751.5211268,637.4806338,734.8802817
992,6811.44591,7167.644679,2759.206684,738.2480211,653.3139842,733.0413369
993,6807.014085,7160.28169,2742.84507,733.2394366,645.6056338,724.5633803
994,6790.997361,7163.994723,2734.001759,720.0123131,638,721.998241
995,6789.447183,7170.758803,2712.271127,694.6179577,634.2059859,718.6883803
996,6768.496479,7183.945423,2694.022887,685.3485915,630.0774648,714.6742958
997,6721.306878,7203.417989,2722.502646,710.3174603,634.3174603,724.0740741
998,6665.491197,7113.427817,2651.867958,700.3521127,623.8239437,700.7922535
999,6565.139085,7090.540493,2646.586268,714.4366197,616.7816901,732.4823944
1000,6536.828797,6920.971027,2625.70676,694.1457419,634.7322212,728.1949078
1001,6493.504425,6921.787611,2604.070796,680.0353982,610.7964602,733.9646018
1002,6403.298246,6902.491228,2581.859649,694.4912281,593.8245614,738
1003,6294.725664,6854.955752,2564.902655,693.0088496,597.9469027,732.0530973
1004,6255.631579,6814.210526,2559.842105,679.8245614,603.5438596,729.5263158
1005,6302.389381,6748.566372,2557.309735,697.539823,601.3451327,736.7964602
1006,6234.842105,6716.701754,2526.315789,677.0175439,616,715.2631579
1007,6245.368421,6725.473684,2505.263158,664.7368421,616,731.0526316
1008,6127.876106,6642.814159,2440.778761,677.3097345,596.0353982,741.9823009
1009,6161.345133,6653.238938,2483.911504,675.699115,586.2654867,725.3628319
1010,6155.368421,6615.087719,2514.350877,668.0350877,584,727.5438596
1011,6108.283186,6560.973451,2504.707965,670.6902655,583.0442478,729.2212389
1012,6099.044248,6567.752212,2494.530973,678,588.5309735,710.9380531
1013,6124.210526,6622.947368,2495.192982,680.4561404,595.0877193,691.4385965
1014,6084.283186,6627.044248,2458.283186,683.539823,581.2389381,701.2566372
1015,6058.283186,6591.20354,2432.141593,652.1061947,589.9646018,695.9823009
1016,6086.60177,6511.557522,2446.300885,662.7256637,586.4247788,694.2123894
1017,6033.929204,6562.743363,2460.460177,668.6725664,571.9823009,689.3274336
1018,6043,6544.473684,2439,671.3157895,573.2631579,689.3157895
1019,6062.477876,6579.982301,2410.884956,678.4778761,581.3982301,687.840708
1020,6054.40708,6615.80531,2415.840708,670.4070796,580.0530973,691.0973451
1021,6031.044248,6593.327434,2426.371681,665.0088496,574.4778761,709.1504425
1022,6025.061947,6564.265487,2408.460177,688.9380531,580.3893805,728.5486726
1023,6035.105263,6526.210526,2454.631579,665.7894737,582.1578947,705.0526316
1024,5914.052632,6550.77193,2394.982456,641.2280702,583.9122807,694.5263158
1025,5944.99115,6525.097345,2392,645.0442478,565.5044248,702.4070796
1026,5956.353982,6447.433628,2419.575221,675.0265487,551.840708,714.159292
1027,5975.097345,6401.681416,2398.247788,671.3451327,550.4424779,688.6902655
1028,5967.168142,6397.929204,2389.893805,656.0530973,569.840708,683.8761062
1029,5925.168142,6423.504425,2420.265487,650.7610619,580.3893805,700.2831858
1030,5888.530973,6430.230088,2429.292035,648.2831858,569.0619469,709.840708
1031,5893.309735,6369.699115,2372.902655,635.2920354,572,725.699115
1032,5911.150442,6367.079646,2377.646018,621.3451327,571.5752212,724.4955752
1033,5889.911504,6344.070796,2368.79646,654.9734513,560.9557522,736.8849558
1034,5839.681416,6348.442478,2335.787611,654.7787611,563.2212389,702.5663717
1035,5816.955752,6340.336283,2362.513274,634.6725664,569.5221239,700.9026549
1036,5805.097345,6293.433628,2360.743363,637.5044248,569.699115,710.9026549
1037,5824.849558,6308.017699,2357.20354,644.159292,568,709.5575221
1038,5838.814159,6334.389381,2355.575221,649.5929204,569.380531,697.8584071
1039,5816.442478,6300.40708,2329.238938,656.6371681,565.5575221,687.2389381
1040,5834.548673,6349.80531,2327.59292,634.0707965,544,682.6017699
1041,5808,6256,2386,650,544,718
1042,5724.071429,6329.214286,2359.214286,642.8571429,542.2142857,682.2857143
1043,5740.477876,6227.415929,2334.19469,643.5575221,542,671.7699115
1044,5713.486726,6235.823009,2300.123894,645.3274336,553.9469027,679.2920354
1045,5658.690265,6257.097345,2278.318584,652.5840708,545.7345133,715.8230088
1046,5619.327434,6262.336283,2278.938053,640.6548673,535.7345133,721.1858407
1047,5620.857143,6244.214286,2275.142857,625.0714286,543.1428571,696.5714286
1048,5638.230088,6206.743363,2268.389381,641.699115,552.7256637,699.4513274
1049,5601.80531,6257.699115,2340.106195,647.6106195,549.7522124,691.5575221
1050,5600.035398,6291.327434,2304.707965,644.0707965,565.6814159,705.7168142
1051,5606.938053,6234.761062,2316.141593,612.7787611,550.3893805,695.5929204
1052,5609.517857,6186.535714,2284.607143,621.6607143,532.8214286,706.1428571
1053,5606.123894,6224.389381,2255.911504,626,535.7522124,703.539823
1054,5609.357143,6204.857143,2271.714286,621.7142857,544.2857143,696.7857143
1055,5630.99115,6129.168142,2277.00885,612.0530973,566.6902655,681.2566372
1056,5676.920354,6103.061947,2264.530973,607.0973451,569.699115,676.3893805
1057,5712.678571,6158.25,2280.928571,614.3928571,526.2857143,704.7857143
1058,5646.460177,6182.265487,2247.575221,612.9911504,550.9380531,705.699115
1059,5611.061947,6084.920354,2203.327434,582.9026549,540.3185841,682.6902655
1060,5622.017699,6066.548673,2251.787611,587.1504425,543.4336283,690.5840708
1061,5564,6097,2263,615,536.5,678.5
1062,5546.548673,6020.070796,2280.566372,632.920354,534,672.7256637
1063,5584.875,6007.928571,2260.5,620.0892857,532.9464286,659.3571429
1064,5561.433628,6072.778761,2238.99115,605.6637168,547.8053097,663.8053097
1065,5461.964286,6110.535714,2247.821429,608,560.8928571,680.5357143
1066,5459.221239,6095.274336,2248.106195,604.1061947,538.8318584,668
1067,5629.642857,6079.017857,2232.964286,588.3214286,534.6428571,669.6071429
1068,5536.785714,6023.660714,2243.678571,591.8928571,541.7857143,687.4642857
1069,5485.5,6015.071429,2240.535714,611.0535714,514.2857143,651.625
1070,5485.522124,6056.123894,2227.964602,610.9911504,528.0530973,676.0884956
1071,5448.142857,6036.571429,2207.285714,611.2857143,544.2857143,673.1428571
1072,5462.428571,6003,2181.928571,606.6428571,523.2142857,669.2142857
1073,5463.415929,5992.548673,2190.088496,608.7964602,509.3451327,666.0530973
1074,5401.375,6021.625,2202.5,609.875,517,663
1075,5358.464286,6050.071429,2176.732143,594.875,509.6964286,669.0714286
1076,5369.752212,5946.867257,2225.221239,607.5575221,523.0265487,650
1077,5385.681416,5991.115044,2218.141593,621.7168142,514.1769912,650
1078,5456,5979.75,2205.75,604.5,524.5,651.75
1079,5390.75,5911.964286,2210.142857,592.7857143,526,662.75
1080,5346.857143,5837.821429,2198.785714,596.6071429,523.3571429,668.6428571
1081,5361.238938,5856.088496,2189.80531,601.0973451,527.4867257,662.3185841
1082,5358.375,5946.5,2184.5,591.5,534.625,646.375
1083,5331.964286,5989.553571,2168.767857,580.6428571,532.0535714,648.5357143
1084,5344.910714,5924.375,2155.375,585.5535714,517.3214286,671.3035714
1085,5358.053571,5869.303571,2183.821429,583.3035714,511.25,649.3928571
1086,5328.946429,5863.892857,2152.321429,578.3035714,535.5714286,660.1428571
1087,5423.589286,5853.178571,2184.464286,608.6607143,492.7142857,674.4285714
1088,5313.214286,5852,2165.75,591.3392857,519.7857143,645.8035714
1089,5331.061947,5913.327434,2194.070796,580.5486726,506.1946903,627.0973451
1090,5322,5870,2198.571429,586,510.8571429,646
1091,5301.714286,5853.142857,2162.142857,589.2142857,516.4285714,672.3571429
1092,5338.142857,5915.285714,2137.857143,587.4285714,503.5714286,673.4285714
1093,5369.5,5945,2158,585,498,654.5
1094,5296.285714,5934.571429,2179.428571,572.5714286,514,646.5714286
1095,5334,5960.285714,2198.071429,588.2857143,502.2857143,662.2857143
1096,5334,5917.428571,2149.857143,595.4285714,509.4285714,669.4285714
1097,5361.928571,5976.428571,2149.285714,591.0714286,513.2857143,661.7857143
1098,5319.428571,5930,2155.714286,581.4285714,506.8571429,657.1428571
1099,5377.189189,5945.207207,2155.54955,593.9279279,510.1261261,664.5765766
1100,5427.017857,5978.142857,2172.321429,613.1607143,518.0714286,665.9285714
1101,5407.910714,5974.75,2179.553571,602.7142857,526.8214286,650.75
1102,5378,5930.892857,2164.589286,571.0535714,525.1607143,644.6071429
1103,5366.75,5875.75,2160.375,568.5,509.625,667
1104,5318.964286,5922.821429,2139.535714,589.6071429,531.5892857,654.4821429
1105,5329.678571,5976.392857,2178.821429,607.4642857,504.8035714,659.8392857
1106,5388.892857,5932.964286,2150.553571,588.9464286,514.3928571,670.3928571
1107,5371.963964,5948.972973,2133.747748,582.9369369,488.4324324,665.8738739
1108,5317.75,5971.857143,2112.821429,570.1071429,509.0714286,662.6785714
1109,5295.107143,5911.357143,2122.821429,581.7142857,516.25,656.4642857
1110,5306.714286,5897.964286,2147.821429,600.4642857,509.1071429,657.3571429
1111,5341.225225,5953.423423,2175.747748,598.4684685,510.7387387,653.7297297
1112,5363.196429,5950.357143,2199.732143,586.8928571,511.1785714,636.8928571
1113,5312.035714,5925.089286,2175.178571,595.4642857,499.2142857,645.1964286
1114,5364.162162,5959.243243,2145.621622,591.2432432,520.5405405,639.8378378
1115,5369.567568,6000.684685,2199.675676,566.018018,538.5585586,634.4324324
1116,5381.5,5994.142857,2169.5,588.6428571,520.2857143,668.5
1117,5388.285714,5993.428571,2176.285714,579.7142857,514.5714286,644.5714286
1118,5367.945946,5978.072072,2166.072072,570.3243243,521.3513514,649.1531532
1119,5335.678571,5995.482143,2174.321429,580.2142857,532.1071429,651.8571429
1120,5341.303571,6005.928571,2188.785714,599.2321429,527.5535714,643.1964286
1121,5414.054054,6016.486486,2180.432432,605.8378378,506.0540541,644.972973
1122,5494.571429,6083.071429,2178.678571,596,497.5,652.3928571
1123,5452.216216,6017.855856,2200.594595,596,520.9009009,653.4594595
1124,5414.378378,5976.414414,2146.540541,596,529.9099099,648.0540541
1125,5405.160714,6057.321429,2138.928571,581.8571429,530,646.2321429
1126,5375.783784,5922.216216,2185.027027,603.5135135,506.4864865,635.027027
1127,5380.324324,5953.207207,2144.594595,601.7837838,508.2162162,633.3693694
1128,5397.607143,5959.303571,2133.928571,589.875,510.8392857,632.8392857
1129,5336.288288,5952.414414,2145.90991,577.3153153,502.3603604,650.1441441
1130,5290.75,5939,2161.5,578.25,503.75,650.5
1131,5347.405405,5894.540541,2184,583.8918919,520,620.1621622
1132,5370.482143,5908.214286,2175.178571,567.4285714,514.5714286,631.0892857
1133,5408.468468,5969.891892,2130.234234,592.8648649,489.3873874,656.2522523
1134,5358.018018,5996.918919,2105.009009,576.6486486,509.2072072,659.8558559
1135,5392.324324,5935.72973,2174.918919,579.4594595,504.8108108,647.8918919
1136,5347.910714,5968.5,2157.160714,587.5892857,507.0357143,644.4821429
1137,5360.936937,5971.477477,2151.945946,587.3693694,523.7837838,637.4234234
1138,5400.576577,6020.738739,2135.009009,590.4684685,507.4234234,622.8288288
1139,5403.459459,6065.837838,2146.648649,591.2432432,501.7837838,629.6216216
1140,5390.428571,6058,2171.571429,590.8571429,523,647.2857143
1141,5413.099099,6066.738739,2154.45045,591.963964,523.4234234,636.4144144
1142,5440.486486,6137.423423,2149.333333,579.0810811,498.6126126,613.2072072
1143,5411.189189,6089.891892,2211.891892,575.0810811,502.972973,641.7837838
1144,5431.009009,6088.09009,2210.09009,593.0990991,519.1891892,638.1801802
1145,5428.576577,6132.504505,2228.828829,573.4594595,525.1351351,636.2882883
1146,5450.5,6092,2232,594,515.5,642
1147,5450.216216,6074.702703,2228.108108,587.7297297,504.2162162,623.2432432
1148,5505.351351,6144.342342,2207.315315,580,513.1891892,627.3873874
1149,5528.774775,6167.765766,2196.504505,584.5045045,524.9009009,618.3783784
1150,5494.486486,6133.027027,2192.864865,579.4594595,529.5135135,603.2432432
1151,5474.378378,6156.09009,2187.603604,564.5405405,530.954955,617.9459459
1152,5440.432432,6184.468468,2221.387387,578.6126126,513.8558559,602.7567568
1153,5477.297297,6176.864865,2217.027027,582.7567568,503.1891892,617.5675676
1154,5498.918919,6191.279279,2200.810811,595.3693694,523.009009,610.3603604
1155,5501.711712,6207.405405,2241.081081,611.4054054,537.6936937,615.1351351
1156,5559.513514,6214.540541,2255.567568,595.8378378,535.4594595,629.6216216
1157,5625.351351,6269.927928,2251.423423,591.3153153,524.7927928,627.4234234
1158,5661.171171,6365.027027,2268.108108,596.4684685,521.1171171,627.3513514
1159,5751.783784,6463.945946,2314.324324,604.5945946,536.7027027,637.3513514
1160,5895.567568,6525.927928,2344.234234,611.4414414,550.3963964,638.0720721
1161,6008.216216,6610.540541,2361.693694,616.0900901,544.5225225,622.4324324
1162,6115.567568,6842.432432,2443.243243,622.6486486,551.5135135,622.5405405
1163,6265.441441,7021.477477,2467.063063,627.2612613,578.990991,645.6216216
1164,6371.747748,7185.441441,2567.963964,645.2792793,564.5765766,640.2162162
1165,6542.054054,7437.621622,2641.189189,666.7567568,614.1621622,612.3243243
1166,6877.090909,7647.545455,2720,682.3636364,649.8181818,612.6363636
1167,7082.864865,8008.810811,2835.945946,722.4864865,659.3513514,616.7027027
1168,7338.648649,8382.864865,2952.342342,757.2972973,677.2972973,644.5225225
1169,7640.702703,8664.504505,3045.063063,766.1801802,695.7297297,646.8108108
1170,7862.972973,8800.324324,3139.945946,773.3513514,718.6486486,643.1351351
1171,8033.418182,8921.090909,3231.581818,802.7090909,742.0545455,666.3090909
1172,8238.054054,9220.486486,3278.324324,829.6216216,732.7567568,662.7567568
1173,8232.468468,9340.306306,3369.675676,829.2612613,737.8018018,663.1171171
1174,8517.153153,9403.369369,3326.432432,841.8738739,755.8198198,634.2882883
1175,8388.6,9346.4,3324.2,838.4,745.2,666.4
1176,8237.693694,9176.432432,3229.387387,852.4324324,726.3603604,661.981982
1177,8171.675676,9029.189189,3270.648649,832.1081081,741.6756757,671.2432432
1178,8131.2,8919.436364,3271.2,815.9090909,729.2909091,671.1272727
1179,8122.216216,8764,3198.540541,797.6216216,712.9189189,665.9459459
1180,8053.747748,8576.432432,3135.225225,773.2252252,700.0540541,664
1181,7834.636364,8427.727273,3085,755.4545455,689.1818182,672.9090909
1182,7571.225225,8279.279279,3013.153153,745.9459459,682.9369369,684.7927928
1183,7451.890909,8029.127273,3012.8,729.4545455,638.7636364,656.1818182
1184,7204.810811,7974.432432,2931.459459,711.2792793,642.9189189,630.6486486
1185,6875.081081,7785.243243,2817.945946,693.2612613,615.8918919,646.8648649
1186,6738.709091,7636.727273,2781.254545,697.0727273,603.8545455,614.1818182
1187,6626.774775,7549.189189,2699.72973,668.0900901,591.5315315,621.4594595
1188,6543.636364,7406.254545,2630.8,665.8545455,589.3090909,605.0545455
1189,6415.459459,7281.675676,2628.108108,654.3603604,574.3603604,592.8828829
1190,6383.290909,7143.127273,2565.181818,644.7818182,562,585.5090909
1191,6344.918919,7036.522523,2485.081081,636.1801802,561.2612613,583.9099099
1192,6125.454545,6972.909091,2489.818182,619.2727273,554,592.9090909
1193,5966.882883,6794.144144,2443.711712,621.5135135,533.6756757,588.1981982
1194,5962.654545,6711.2,2404.527273,589.5454545,513.3454545,580.9818182
1195,5769.927273,6591.2,2388.163636,562.2727273,506.0727273,591.8909091
1196,5699.6,6471.2,2339.4,574.6,504.2,593.8
1197,5541.261261,6456.396396,2303.531532,572.7927928,505.6036036,587.5855856
1198,5416.072727,6309.927273,2257.709091,553.5636364,484.7272727,576.0727273
1199,5337.963636,6185.709091,2206.145455,538.5818182,483.4181818,568.2909091
1200,5297.236364,6071.127273,2196.654545,522.4,477.4545455,545.9636364
1201,5206.162162,5966.810811,2169.081081,519.7837838,459.3513514,534.9189189
1202,5073.727273,5901.854545,2094.454545,526.6363636,450.0181818,533.9090909
1203,4988.472727,5840.054545,2052.909091,515.0909091,453.0181818,522.3454545
1204,4914.018182,5744.909091,2053.472727,501.8545455,451.2363636,546.4545455
1205,4928.432432,5722.828829,1971.099099,509.8558559,456.990991,537.8738739
1206,4820.324324,5648.954955,1929.657658,479.2252252,442.5765766,536.0720721
1207,4760.145455,5612.836364,1987.345455,488.4727273,429.7818182,527.2727273
1208,4806.727273,5518.872727,1931.890909,497.8181818,424.8727273,532.2545455
1209,4739.090909,5553.418182,1920.909091,494.4727273,436.4363636,527.0909091
1210,4697.2,5496,1916.8,498,442,528.8
1211,4720.472727,5461.381818,1904.872727,505.0545455,439.9636364,511.6363636
1212,4694.145455,5463.6,1914.727273,502.9818182,438.8363636,502.0363636
1213,4648.181818,5443.890909,1920.981818,496.6545455,437.3818182,519.2727273
1214,4688.290909,5460.727273,1891.672727,495.1636364,431.0545455,523.6363636
1215,4649.527273,5471.345455,1913.490909,483.3818182,430.0363636,516.5818182
1216,4685.163636,5446.181818,1933.018182,469.4181818,440.4727273,519.4545455
1217,4737.890909,5482.545455,1916.654545,493.0545455,415.0181818,510.3636364
1218,4695.027027,5466.702703,1907.351351,495.7297297,422.6486486,518.6486486
1219,4658.366972,5490.513761,1902.880734,492.8807339,433.3577982,507.5229358
1220,4655.527273,5417.854545,1895.090909,479.5636364,441.5272727,509.5272727
1221,4658,5401.2,1901.6,480,446.4,506
1222,4659.018182,5429.272727,1890.690909,491.1272727,449.0181818,507.0909091
1223,4636.581818,5398.836364,1887.381818,507.2,450,509.4909091
1224,4622.327273,5354.327273,1895.527273,503.6363636,446.7272727,513.8545455
1225,4650.072727,5391.054545,1873.054545,472.8363636,442.8363636,521.9636364
1226,4622.654545,5399.054545,1874.072727,482.8727273,446.7636364,496.2909091
1227,4649.563636,5461.709091,1896.909091,487.4545455,415.7818182,497.8909091
1228,4642.290909,5423.527273,1878.727273,478.3636364,412.1454545,496.0727273
1229,4561.709091,5397.563636,1869.272727,481.4909091,432.9454545,508.2181818
1230,4605.229358,5352.972477,1869.577982,488.3119266,429.6880734,498.9541284
1231,4590.6,5346.2,1868.6,485.8,418.2,500.2
1232,4558.509091,5363.836364,1865.563636,479.1272727,409.1272727,495.9090909
1233,4552.218182,5329.436364,1875.4,477.0363636,412.2181818,492
1234,4538.165138,5286.275229,1860.990826,484.0366972,425.7614679,487.6880734
1235,4487.818182,5284.690909,1828.690909,487.8545455,438.0727273,482.6909091
1236,4455.236364,5284.472727,1834.072727,475.4181818,436.4,488.0727273
1237,4484.091743,5280.990826,1841.376147,458.6972477,421.3211009,500.3302752
1238,4439.236364,5279.618182,1820.618182,445.4363636,428.1636364,498.4
1239,4497.418182,5208.709091,1849.709091,483.6181818,429.9818182,458.4
1240,4478.2,5224.2,1828.4,473.2,431.8,479.6
1241,4466.201835,5204.770642,1829.266055,472,432,501.5963303
1242,4439.272727,5243.636364,1815.454545,480.7272727,420.3636364,506
1243,4409.636364,5220.545455,1784.545455,462.3636364,422.3636364,509.8181818
1244,4468.458716,5237.633028,1787.614679,448.8990826,416.0917431,503.1926606
1245,4467.581818,5249.6,1815.909091,461.9090909,408,482.0909091
1246,4446.642202,5218.477064,1830.495413,463.706422,409.5045872,477.2844037
1247,4499.563636,5192.036364,1825.090909,445.8181818,415.4909091,501.8181818
1248,4429.100917,5160.825688,1814.366972,461.6146789,421.5779817,511.1559633
1249,4377.490909,5167.272727,1794.8,467.0545455,412.9454545,492.2363636
1250,4317.302752,5133.321101,1757.155963,460.1100917,419.4495413,494
1251,4427.394495,5177.357798,1795.688073,463.7798165,401.1009174,494
1252,4369.054545,5209.054545,1806.545455,457.1636364,401.7090909,487.1636364
1253,4385.743119,5170.844037,1783.33945,452.9174312,409.706422,464.4220183
1254,4304.550459,5090.568807,1784.256881,456.1284404,413.3761468,474.5137615
1255,4348,5098.4,1791.6,453.2,411.6,474.8
1256,4354.678899,5133.247706,1752.899083,448.9724771,407.9449541,471.0275229
1257,4318.254545,5118.072727,1720.836364,445.4363636,401.7272727,463.4545455
1258,4318.422018,5081.926606,1742.220183,448.7889908,404.146789,454.7155963
1259,4287.376147,5093.009174,1772.165138,452.7522936,417.4311927,463.5963303
1260,4288.854545,5139.709091,1789.309091,430.8363636,406.8909091,467.0909091
1261,4362.807339,5099.174312,1784.844037,454.3302752,392.3302752,435.9816514
1262,4394,5090,1772,458,396,458
1263,4263.724771,5086.330275,1740.807339,445.1559633,399.6697248,461.6697248
1264,4270.366972,5099.357798,1754.697248,425.6330275,403.3394495,446.9724771
1265,4271.018182,5070.690909,1769.927273,435.4181818,408.4727273,463.3818182
1266,4260.752294,5131.33945,1754.183486,441.3211009,406.0366972,459.4311927
1267,4259.46789,5120.605505,1747.46789,444.3119266,404,450.5321101
1268,4264.972477,5079.06422,1732.165138,444.0183486,402.0183486,448.9908257
1269,4259.743119,5066.220183,1732.990826,444.4770642,413.2110092,456.6055046
1270,4255.926606,5064.605505,1750.091743,442.7155963,422.0917431,462.6972477
1271,4274.945455,5067.2,1741.290909,436.9090909,401.5090909,455.5090909
1272,4275.577982,5030.256881,1769.761468,450.7522936,397.8165138,452.440367
1273,4229.412844,5014.256881,1739.963303,444.733945,387.3211009,443.412844
1274,4222.073394,5067.46789,1789.504587,453.9082569,403.8348624,436.0733945
1275,4132.990826,5057.100917,1753.669725,432.2018349,387.6513761,461.4311927
1276,4183.449541,4980.036697,1735.137615,428.3486239,407.4678899,447.4862385
1277,4213.834862,5030.880734,1734.972477,425.0275229,386.733945,418.733945
1278,4234.53211,5059.284404,1742.605505,425.3211009,366.1100917,441.706422
1279,4270.899083,5007.669725,1725.192661,422.5321101,376.1834862,439.5045872
1280,4279.119266,5016.550459,1728.825688,428.9174312,389.9816514,427.9816514
1281,4258.568807,5053.614679,1755.431193,433.0458716,397.7798165,436.6055046
1282,4239.412844,5050.53211,1754.110092,432.6055046,398.0733945,441.3761468
1283,4255.688073,5064.642202,1738.917431,446.9908257,389.9266055,437.9449541
1284,4365.926606,5030.550459,1771.614679,450,411.0275229,455.6697248
1285,4402.697248,5104.733945,1799.009174,449.5045872,396.9908257,452.0183486
1286,4366,5224,1788,444,408,430
1287,4382.513761,5205.651376,1826.53211,453.1743119,411.6697248,439.1743119
1288,4537.351852,5266.351852,1821.574074,455.6851852,435.5925926,461.9074074
1289,4511.174312,5337.394495,1873.302752,454.4770642,427.8165138,444.6788991
1290,4491.284404,5317.981651,1873.706422,463.5045872,428.0733945,443.4311927
1291,4591.376147,5372.752294,1875.541284,460.8440367,432.3853211,448.3853211
1292,4670.275229,5423.027523,1886.110092,463.1926606,426.8073394,455.1376147
1293,4657.577982,5443.834862,1902.073394,465.6880734,426.0366972,453.1009174
1294,4659.666667,5500.259259,1915.888889,460,425.5555556,456.6666667
1295,4737.816514,5529.027523,1917.504587,462.2018349,416.0550459,477.7981651
1296,4793.082569,5485.743119,1933.926606,466.4587156,433.5412844,470.0733945
1297,4801.333333,5600.888889,1944,462.2222222,438.6666667,463.1111111
1298,4765.027523,5594.642202,1958.53211,480,428.293578,471.412844
1299,4790.715596,5660.697248,1921.834862,480,435.6330275,456.733945
1300,4851.266055,5547.211009,1972.293578,471.2844037,437.7431193,473.4311927
1301,4751.119266,5541.045872,1978.422018,466.8440367,428.5321101,447.5963303
1302,4811.833333,5556.833333,1933.796296,466,437.4074074,449.9814815
1303,4816.348624,5567.06422,1914.733945,459.6697248,439.4678899,437.5412844
1304,4722.444444,5544.444444,1897.333333,461.5555556,429.1111111,445.7777778
1305,4660.091743,5524,1890.678899,460.2752294,423.9082569,453.3211009
1306,4601.192661,5481.394495,1894.844037,450.8440367,410.2201835,438.1100917
1307,4481.259259,5397.740741,1877.407407,434.6666667,392.2962963,429.1481481
1308,4419.06422,5321.266055,1833.779817,411.4311927,398.3669725,437.9082569
1309,4428.166667,5195.5,1779.796296,417.5740741,379.3518519,440.8518519
1310,4320.844037,5149.009174,1765.853211,425.8348624,406.1834862,423.6697248
1311,4308,5138,1742,424,386,420
1312,4204.296296,5043.555556,1730.888889,412.8888889,402.6666667,425.5555556
1313,4187.559633,4992.110092,1733.376147,413.6880734,393.8715596,429.3761468
1314,4141.425926,4977.851852,1661.759259,418.6111111,387.3888889,433.0740741
1315,4087.722222,4951,1659.444444,414.4444444,377.6666667,410.3888889
1316,4109.33945,4952.293578,1675.376147,414.4587156,385.0642202,414.7522936
1317,4131.851852,4866.555556,1676.777778,410.6296296,392,414.3333333
1318,4136.422018,4835.541284,1674.917431,392.2385321,391.0825688,411.5045872
1319,4126.537037,4903.87037,1679.796296,394.2222222,390,421.037037
1320,4104.111111,4920,1666.444444,416.6666667,382.6666667,418.6666667
1321,4116.165138,4935.59633,1640.807339,411.9266055,369.6697248,405.2110092
1322,4108.518519,4984.444444,1701.925926,446.6666667,382.5925926,414.2222222
1323,4098.222222,4958.962963,1690.444444,416.7407407,386.2962963,405.7777778
1324,4076,4896,1696,426,390,428
1325,4184.256881,4967.559633,1664.807339,414.9908257,390,396.8073394
1326,4258.037037,4977.37037,1714.240741,429.1666667,400.1111111,410.8518519
1327,4223.888889,5076.37037,1731.685185,424.3148148,382.0185185,397.0925926
1328,4180.833333,5051.833333,1728.444444,438.6666667,388.5,408.6666667
1329,4240.53211,5098.073394,1748.12844,423.8715596,405.0642202,414.7706422
1330,4268.814815,5168.851852,1759.851852,419.6666667,400.1851852,405.4074074
1331,4265.111111,5176.259259,1765.407407,435.4074074,396.4814815,407.2592593
1332,4287.333333,5173.555556,1784.111111,438.5555556,400.8888889,419.5555556
1333,4307.037037,5213.740741,1797.481481,438.1851852,397.8888889,416.962963
1334,4339.185185,5248.962963,1794.407407,451.1851852,398.1481481,408.4074074
1335,4405.333333,5261.333333,1798.333333,437,388.3333333,414.6666667
1336,4402.925926,5301.703704,1781.111111,440.7037037,402.2222222,405.5925926
1337,4412.954128,5240.146789,1792.330275,428.3669725,423.412844,382.4770642
1338,4460.66055,5247.486239,1808.844037,446.7155963,394.0550459,406.3302752
1339,4389.944444,5310,1801.388889,444.5555556,376.5,428.6666667
1340,4333.925926,5252.314815,1788.981481,437.7037037,403.9074074,419.4074074
1341,4383.314815,5263.944444,1827.351852,438.8518519,403.4444444,398.8888889
1342,4411.833333,5296.444444,1842.722222,445.1111111,387.2222222,397.1111111
1343,4381.240741,5350.925926,1848.777778,449.1296296,394.6851852,397.7407407
1344,4424.703704,5343.759259,1855.962963,447.0555556,406.9814815,397.962963
1345,4469.925234,5326.392523,1858.841121,444.8411215,401.271028,408.411215
1346,4468.481481,5339.592593,1872.666667,443.8888889,396.2222222,417.8888889
1347,4517.555556,5323.666667,1898.777778,446.6666667,402.8888889,410.6666667
1348,4484.074074,5377.555556,1904.37037,466.4444444,402.037037,403.2222222
1349,4508.555556,5368.518519,1899.555556,476.5185185,410.7777778,406.7037037
1350,4566.777778,5373.333333,1906.666667,480.2222222,416.2222222,399.6666667
1351,4579.740741,5395.555556,1851.111111,483.9259259,419.9259259,427.4444444
1352,4609.037037,5497.62963,1877.222222,449.5185185,407.2962963,417.1111111
1353,4660.333333,5509.666667,1915,466,409.3333333,419.3333333
1354,4676.130841,5474.747664,1912.803738,457.7383178,410,409.271028
1355,4682.166667,5552.888889,1916.944444,456.7777778,405.8333333,415.7222222
1356,4677.796296,5637.907407,1926.203704,462.962963,420.1296296,417.5185185
1357,4751.574074,5698.777778,1943.111111,461.6296296,434.3703704,416
1358,4813.166667,5760.944444,1952.111111,460.8333333,443.6666667,411.2777778
1359,4850.990654,5875.551402,1990.990654,458.3738318,453.2149533,406.8037383
1360,4916,6007.333333,2032,460,450,410.6666667
1361,4951.481481,6064.148148,2015.851852,480.5185185,434.5185185,416.5185185
1362,5044.953271,6135.439252,2087.364486,480.5046729,438.2429907,419.8691589
1363,5126.851852,6233,2105.37037,476.4074074,451.1296296,427.7592593
1364,5251.574074,6333.740741,2132.685185,494.2777778,472.8888889,425.537037
1365,5283.055556,6448.555556,2186.388889,499.8333333,450.6666667,416.2777778
1366,5325.700935,6462.878505,2207.943925,500,484.4485981,439.5700935
1367,5560,6585.666667,2265,513.3333333,494.6666667,425.3333333
1368,5560.018692,6657.514019,2279.065421,520.5981308,482.2056075,434.2616822
1369,5605.722222,6699.777778,2256.388889,524.7777778,494.6666667,426.8888889
1370,5639.444444,6770.314815,2291.907407,529.7222222,513.1666667,444.3333333
1371,5660.542056,6761.88785,2315.588785,537.5140187,522.2056075,443.6635514
1372,5684.592593,6759.703704,2317.777778,542.962963,519.1851852,431.037037
1373,5739.588785,6808.336449,2319.88785,539.0654206,518.9345794,420.953271
1374,5813.065421,6820.46729,2317.457944,537.5327103,529.4579439,408.6915888
1375,5821.222222,6832.222222,2314,543.5555556,536,412.2222222
1376,5780.598131,6889.17757,2292.934579,532,532.2990654,420.8785047
1377,5743.944444,6887.111111,2313.111111,531.7222222,516.6111111,432.8333333
1378,5695.17757,6890.728972,2319.607477,529.7383178,507.3457944,435.7757009
1379,5712,6844,2314,526,498,404
1380,5660.148148,6853.259259,2349.185185,522.2962963,499.8518519,428.0740741
1381,5683.514019,6945.140187,2327.925234,513.4018692,505.1588785,438.5981308
1382,5703.88785,6866.261682,2295.401869,540.5981308,512.3551402,419.3457944
1383,5706.555556,6925.777778,2282.222222,543.6666667,529.8888889,418.3333333
1384,5758.336449,6909.588785,2307.476636,547.2336449,522.9158879,410.8411215
1385,5714.168224,6866.336449,2285.495327,555.8878505,506.5794393,407.1775701
1386,5612.148148,6790.740741,2292.148148,543.4074074,509.3333333,409.037037
1387,5592.71028,6738.280374,2291.495327,528.8971963,515.3084112,410.8971963
1388,5598.11215,6756.728972,2259.364486,535.364486,514.2990654,408.1682243
1389,5551.271028,6736.504673,2261.009346,538.9158879,513.5514019,396.9158879
1390,5524,6654.5,2248,516,500,384.5
1391,5409.140187,6637.925234,2240.149533,488.1682243,486.2242991,382.1308411
1392,5284.579439,6573.252336,2175.551402,521.0654206,477.7757009,389.0841121
1393,5202.616822,6501.28972,2168.261682,481.5327103,475.9065421,367.0280374
1394,5054.953271,6447.084112,2093.495327,472.1869159,474.0373832,387.588785
1395,5002.542056,6213.364486,2055.364486,457.3457944,444.6915888,380.6728972
1396,4836.222222,5989.777778,1966.055556,425.6666667,440.3148148,368.2037037
1397,4647.757009,5813.925234,1942.242991,426.2056075,412.0747664,358.2429907
1398,4539.495327,5629.102804,1883.17757,430.8411215,409.682243,360.2616822
1399,4395.345794,5442.317757,1810.990654,428.1308411,400.3925234,352.9719626
1400,4276.691589,5354.616822,1753.869159,426,394,339.8878505
1401,4202.018692,5241.252336,1712.46729,411.6074766,397.0841121,341.1962617
1402,4140.186916,5135.233645,1684.130841,389.9252336,391.0280374,356.0747664
1403,4051.588785,5042.299065,1655.906542,383.0654206,365.4392523,357.5700935
1404,3938.579439,4904.46729,1624.280374,389.9065421,346.4485981,339.5514019
1405,3864.317757,4855.233645,1598.373832,394,357.5140187,331.0093458
1406,3810.11215,4759.906542,1558,390.635514,361.6261682,336.2429907
1407,3819.252336,4716.485981,1552.654206,376.9719626,358.2990654,345.271028
1408,3756.11215,4717.420561,1515.345794,382.9906542,346.6728972,339.6635514
1409,3757.981308,4674.429907,1537.775701,366.1682243,357.8878505,334.0560748
1410,3770.953271,4655.495327,1525.046729,362.2990654,350.5981308,343.2523364
1411,3653.345794,4595.53271,1515.401869,356.8411215,351.7196262,331.9626168
1412,3699.140187,4592.35514,1526.71028,357.588785,331.3457944,326.8224299
1413,3698.339623,4617.54717,1521.169811,366.8301887,346.6037736,340.7169811
1414,3670.46729,4550.635514,1516.654206,365.9626168,340.5420561,329.8504673
1415,3590.747664,4571.102804,1494.130841,372.5046729,330.3551402,332.9345794
1416,3578.523364,4602.579439,1480,370.411215,338.8411215,340
1417,3585.028037,4566.542056,1504.785047,360.1869159,343.2336449,332.3738318
1418,3584.415094,4536.150943,1519.54717,360.9811321,341.3207547,320.6792453
1419,3608.897196,4538.448598,1497.738318,367.2897196,343.1588785,318.8411215
1420,3598.897196,4551.700935,1486.523364,360.2056075,342.635514,330.3738318
1421,3593.439252,4578.915888,1479.345794,344.6542056,348.1682243,339.271028
1422,3557.056604,4517.226415,1480.471698,342.245283,330.5660377,316.6415094
1423,3592.149533,4574.971963,1465.084112,354.6168224,345.4392523,320.8224299
1424,3580.485981,4570.71028,1492.224299,360.3738318,358.1495327,327.1775701
1425,3692.635514,4688.46729,1497.831776,369.7196262,361.8878505,306.6168224
1426,3685.018868,4589.509434,1529.113208,379.1509434,341.8679245,335.2830189
1427,3665.28972,4629.327103,1549.009346,361.2897196,353.6074766,332.8971963
1428,3644.728972,4625.439252,1537.869159,383.1214953,352.8598131,342.9906542
1429,3664.698113,4637.981132,1534,378.3773585,353.4528302,334.3773585
1430,3737.700935,4690.448598,1503.476636,375.3271028,354,330
1431,3759.132075,4680.188679,1496.45283,365.1320755,344.3396226,342.0754717
1432,3740.074766,4654.747664,1519.345794,364.5046729,340.1682243,331.5700935
1433,3764.317757,4663.439252,1534.953271,365.2336449,345.8130841,317.9065421
1434,3810.301887,4690.113208,1550.943396,369.1320755,343.3584906,324.9811321
1435,3810.635514,4744.803738,1568.448598,376.317757,336.1308411,331.2897196
1436,3790.584906,4817.358491,1565.509434,365.4150943,339.4150943,327.0754717
1437,3809.28972,4833.457944,1574,365.8691589,340.3364486,327.9439252
1438,3863.283019,4830.679245,1578.754717,372.6792453,348.3396226,349.245283
1439,3861.54717,4926.075472,1605.169811,376.9056604,353.1698113,328.7169811
1440,3952.785047,4957.88785,1628.766355,384.8971963,379.4579439,349.1028037
1441,3965.869159,4956.018692,1608.205607,399.8504673,403.7570093,334.1495327
1442,4023.90566,5006.433962,1664.037736,398.1320755,387.1886792,347.0754717
1443,3988.018692,5027.383178,1631.495327,417.1214953,372.0934579,342.7850467
1444,4074.490566,4945.622642,1650.339623,403.7735849,376.490566,361.4716981
1445,4062.792453,4972.792453,1649.962264,407.5471698,376.490566,338.8301887
1446,4032.635514,4974.168224,1654.915888,397.5514019,380.1495327,335.5327103
1447,3991.132075,4989.490566,1637.773585,409.6981132,384.5283019,345.5849057
1448,3967.396226,4968.622642,1628.301887,402.7358491,367.5849057,341.9433962
1449,3920.82243,4869.981308,1613.551402,381.7757009,364.2803738,337.0280374
1450,3877.283019,4742.037736,1575.358491,375.8113208,372.1886792,332.5660377
1451,3821.698113,4705.283019,1533.735849,366.1132075,362.8679245,318.8679245
1452,3745.396226,4717.962264,1526.264151,356.8301887,342.490566,316.8301887
1453,3736.299065,4610.35514,1535.495327,371.7570093,331.8504673,330.0747664
1454,3687.320755,4528.339623,1491.90566,360.3584906,349.8301887,319.5660377
1455,3643.490566,4543.679245,1500.226415,343.5283019,341.0377358,318.6415094
1456,3580.075472,4539.924528,1474.566038,362,335.7924528,321.7924528
1457,3594.698113,4517,1511.924528,361.4339623,334.5660377,319.1509434
1458,3528.660377,4417,1470.415094,350.1132075,345.8867925,302.1698113
1459,3501.849057,4389.849057,1451.320755,350,334.7924528,328.1509434
1460,3480.878505,4415.813084,1432.616822,341.3084112,330.5233645,340.4299065
1461,3447.169811,4415.132075,1400.792453,351.3584906,336.490566,322.5283019
1462,3480.754717,4385.320755,1418.150943,335.8867925,333.4716981,322.5283019
1463,3496.792453,4382.981132,1419.018868,328.6037736,336.1886792,318.4150943
1464,3424.867925,4389.849057,1422.415094,333.1320755,334.1509434,307.0188679
1465,3369.962264,4365.09434,1402.603774,340.6792453,341.3584906,314.8679245
1466,3400.150943,4343.886792,1387.056604,338.7169811,331.0943396,318.7169811
1467,3427.509434,4368.415094,1398.377358,334,316.9433962,312.1132075
1468,3435.433962,4403.811321,1418.301887,329.0188679,320.490566,310
1469,3448.528302,4422.754717,1432.867925,332.0377358,329.0188679,310.7169811
1470,3450.943396,4435.358491,1437.396226,348.7924528,333.7735849,315.6226415
1471,3498.113208,4430.792453,1434.528302,346,325.4716981,317.1320755
1472,3478.867925,4453.811321,1434.150943,343.7358491,331.509434,300.5283019
1473,3481.132075,4422.679245,1453.584906,335.0566038,333.7735849,321.0566038
1474,3522.514286,4501.885714,1460.190476,342.3047619,306.4571429,328
1475,3458.264151,4453.698113,1414,345.8301887,312.509434,328.0566038
1476,3533.735849,4510.301887,1414,340.1698113,329.490566,329.9433962
1477,3481.09434,4513.830189,1439.622642,356.4716981,339.1509434,313.5283019
1478,3479.433962,4455.622642,1466.037736,352.8490566,336.5660377,329.1698113
1479,3512.075472,4502.132075,1397.830189,358.4150943,342.4150943,303.1320755
1480,3548.320755,4498.113208,1412.792453,349.5660377,342.509434,294.509434
1481,3521.847619,4453.066667,1444.857143,340.4380952,333.6571429,317.6380952
1482,3423.886792,4402.641509,1420.641509,345.6981132,330,311.3207547
1483,3431.811321,4426.113208,1409.018868,331.2830189,320.6415094,307.8490566
1484,3412.943396,4401.056604,1418.226415,329.6226415,318.2264151,298.2641509
1485,3381.047619,4355.809524,1390.571429,342.8571429,324.8571429,302.1904762
1486,3365.490566,4340.471698,1372.132075,338.3584906,320.3584906,315.754717
1487,3329.981132,4284.566038,1369.716981,327.2641509,315.1509434,302.6415094
1488,3320.057143,4208.228571,1330.514286,331.0285714,323.3714286,295.6571429
1489,3252.867925,4160.45283,1336.528302,335.1320755,318.8301887,299.0188679
1490,3259.54717,4176.528302,1333.018868,316.8301887,307.9245283,283.5471698
1491,3209.257143,4142.819048,1312.171429,320,300.9142857,316.3428571
1492,3190.471698,4104.45283,1299.301887,317.9245283,303.3018868,294.5471698
1493,3158.952381,4021.52381,1276.666667,299.7142857,280.7619048,283.1428571
1494,3138,4012,1290,294,296,306
1495,3081.396226,3978.037736,1293.773585,303.4339623,296,304.1132075
1496,3095.735849,3951.169811,1295.773585,305.7735849,296,277.3962264
1497,3014.190476,3948,1250.742857,304.3238095,296,289.0857143
1498,2980.609524,3933.771429,1260.971429,304,292.8380952,304.647619
1499,2974.528302,3919.698113,1252.754717,305.4716981,292,302.1132075
1500,3022,3944.8,1264.457143,301.8857143,290.6285714,302.7428571
1501,3003.54717,3930.188679,1266.943396,292.4150943,288.7358491,295.1509434
1502,3013.695238,3855.904762,1275.619048,297.2952381,299.6190476,287.6761905
1503,3045.396226,3834.075472,1270.264151,302.9433962,293.2075472,288.1132075
1504,3029.142857,3843.428571,1239.904762,302,287.6190476,273.8095238
1505,2996.358491,3860.320755,1226.792453,302.8490566,287.509434,270.4339623
1506,3000.114286,3895.257143,1248.628571,298.0571429,282.6857143,286.2857143
1507,3012.990476,3874.571429,1253.161905,291.8857143,287.5238095,274.8190476
1508,3000.396226,3843.849057,1216.90566,293.9811321,278.3773585,272.754717
1509,3027.12381,3865.180952,1214,282.8190476,285.6190476,291.1809524
1510,3020.228571,3851.085714,1213.314286,299.3142857,273.7714286,275.0285714
1511,3001.509434,3875.320755,1212.45283,297.4716981,292,281.4716981
1512,2999.066667,3938.266667,1230.266667,307.6,292.5333333,292
1513,3013.085714,3888.171429,1233.695238,301.9619048,300.0380952,291.6952381
1514,2967.371429,3996.742857,1218.457143,300.0571429,301.9428571,276.4571429
1515,2977.085714,3939.028571,1218,292.6095238,296.4571429,287.0857143
1516,3047.433962,3984.339623,1268.339623,298.9433962,302.9433962,293.2075472
1517,3066.190476,3967.428571,1253.066667,316.3809524,302.3619048,287.447619
1518,3058.742857,4096.228571,1285.028571,327.7142857,303.5428571,295.2571429
1519,3154.438095,4130.209524,1316.266667,318.4190476,296.7619048,289.3142857
1520,3189.295238,4191.561905,1342.933333,318.0571429,303.4666667,288.7047619
1521,3271.433962,4255.622642,1340.792453,332.4528302,312.9811321,290
1522,3323.142857,4282.857143,1339.714286,325.1428571,317.1428571,287.7142857
1523,3307.238095,4271.238095,1337.714286,320.2857143,321.1428571,292.2857143
1524,3290.095238,4230.285714,1338.666667,326,324,297.047619
1525,3315.428571,4216.571429,1340.857143,326.8571429,323.1428571,284
1526,3344.380952,4266.47619,1342.380952,324.1904762,321.2380952,273.3333333
1527,3328,4316,1348,319.3333333,313.3333333,281.3333333
1528,3337.142857,4331.428571,1345.714286,325.4285714,305.1428571,276
1529,3388.571429,4371.904762,1383.809524,334,319.9047619,271.2380952
1530,3421.714286,4398.952381,1397.52381,335.5238095,326.7619048,289.1428571
1531,3455.142857,4497.142857,1405.714286,339.7142857,330.8571429,289.7142857
1532,3514.190476,4546.857143,1420.380952,329.2380952,335.4285714,268.7619048
1533,3556.380952,4502.285714,1461.52381,359.1428571,330.0952381,312.952381
1534,3604,4588,1452,342,332,292
1535,3604,4702.285714,1438.666667,334.3809524,341.5238095,297.7142857
1536,3587.714286,4682.666667,1486.857143,341.2380952,354.6666667,296.1904762
1537,3575.714286,4578.857143,1456,340.2857143,333.7142857,284
1538,3609.961538,4584.884615,1454.903846,344.9038462,339.8076923,283.6346154
1539,3579.428571,4577.657143,1454.457143,335.2,317.3142857,291.7142857
1540,3568,4550.838095,1445.314286,345.0285714,331.7142857,302.6857143
1541,3505.790476,4485.2,1421.714286,345.9428571,331.8857143,278.952381
1542,3434.514286,4439.142857,1373.028571,355.3142857,333.0285714,282.3428571
1543,3418.133333,4385.009524,1355.809524,348.0571429,337.1619048,283.8666667
1544,3360.461538,4334.615385,1374,344.4615385,320.7692308,266.1538462
1545,3263.409524,4274.419048,1364.209524,340.0952381,314.9142857,264.9142857
1546,3194.038095,4205.828571,1327.67619,325.5238095,317.7333333,269.5238095
1547,3157.2,4140.8,1293.2,321.6,313.2,264.8
1548,3142.173077,4071.634615,1265.865385,319.7307692,308.75,268.8461538
1549,3095.942857,4035.085714,1255.085714,310.7428571,299.5428571,265.8285714
1550,3016.933333,3994.933333,1238.933333,306.4,310.6666667,251.2
1551,2983.596154,3918.923077,1228.923077,301.5576923,294.6730769,260
1552,2950.019048,3894.72381,1206.533333,299.6380952,289.6380952,257.4666667
1553,2927.2,3890.266667,1214,296.9333333,289.0666667,247.6
1554,2892.019231,3833.596154,1188.865385,291.2115385,295.3076923,258
1555,2849.238095,3763.238095,1198.761905,302.3809524,288.952381,257.9047619
1556,2834,3708,1214,270,308,256
1557,2876.307692,3771.461538,1190.923077,298.8461538,290.6923077,257.9230769
1558,2812.171429,3772.171429,1169.885714,292.6857143,290,256.1714286
1559,2795.6,3735.6,1145.466667,298.9333333,291.7333333,256
1560,2825.423077,3703.538462,1130.423077,301.6538462,285.3846154,265.9230769
1561,2796.07619,3665.2,1182.666667,295.752381,274.6285714,264.8761905
1562,2827.461538,3704.865385,1177.269231,289.5576923,269.0384615,253.6346154
1563,2784.990476,3648.304762,1157.485714,275.4857143,287.4666667,255.5619048
1564,2794,3687.923077,1153.307692,268.6923077,288.1538462,264.5384615
1565,2763.238095,3707.714286,1141.809524,271.6571429,285.2190476,260.6857143
1566,2787.596154,3672.173077,1121.519231,279.6730769,284.8653846,252.5961538
1567,2792.980769,3654,1133.153846,278.7115385,272.3653846,260.5769231
1568,2764.857143,3632.628571,1151.028571,277.8857143,272.6857143,265.1428571
1569,2759.384615,3626.807692,1135.846154,285.5384615,282.2307692,259.1153846
1570,2742,3636,1130.8,282,282.4,262.8
1571,2733.865385,3617.288462,1142.173077,274.2692308,283.1538462,262.1730769
1572,2733.807692,3642.653846,1124.192308,282,276.0961538,248
1573,2730.846154,3685.5,1123.25,287.5769231,273.6730769,251.3461538
1574,2710.095238,3654.190476,1136.285714,296.7619048,276.5714286,259.047619
1575,2738.692308,3674.769231,1114.153846,280,272.7692308,254.8461538
1576,2758.923077,3688.461538,1110.307692,279.3846154,275.0769231,250.3076923
1577,2806.615385,3746,1176.153846,278.5384615,270.2307692,252.2307692
1578,2805.295238,3755.904762,1166.114286,297.3904762,272.6095238,254.7619048
1579,2917.480769,3876,1216.461538,290.4038462,279.8846154,263.6538462
1580,2900.173077,3876,1231.846154,303.8653846,276.0384615,252.1153846
1581,3029.461538,3995.942308,1266.269231,300.1923077,308.3653846,244.3846154
1582,3054.269231,4053.153846,1231.461538,301.8269231,304.5192308,275.0576923
1583,3142.666667,4120.4,1271.333333,305.4666667,328.2666667,276.2666667
1584,3227.115385,4146.538462,1322.653846,319.2307692,330.3461538,262.7692308
1585,3248.307692,4168.923077,1298.884615,328.3076923,320.5384615,288.3846154
1586,3262,4250.5,1327.5,337.5,315,299
1587,3265.708269,4239.761346,1320.098269,323.3315,315.67425,278.8694423
1588,3210.431346,4248.540192,1322.381923,322.5670769,340.6820385,278.5757885
1589,3236.497115,4184.008269,1314.679615,322.3112692,335.38025,282.7558269
1590,3216.292692,4099.346154,1288.422115,322.2150577,321.277,282.0614808
1591,3136.627308,4068.012885,1277.34,318.2826731,309.1155385,278.8772885
1592,3100.250192,4088.099615,1275.293077,312.3672885,303.6077308,283.6137885
1593,3089.298269,4064.912115,1282.658462,309.8422885,300.8601346,281.7743654
1594,3049.606538,3992.788846,1264.246154,302.02075,302.5765192,270.7940769
1595,2979.287692,3972.862115,1230.427692,305.3091346,303.5463077,269.2243269
1596,2932.288269,3954.896154,1228.250385,308.5466154,289.0326731,268.4914808
1597,2939.946154,3898.848654,1206.069038,287.6277308,285.4334038,257.9078846
1598,2945.549038,3905.065,1189.974808,292.5912885,288.7857115,251.9952885
1599,2951.33,3916.18,1183.34,282.40225,280.45575,269.38775
1600,2923.975192,3930.6175,1161.491154,284.7030192,276.2381923,267.6346346
1601,2899.071154,3910.551538,1208.281731,293.3486731,280.0208269,263.6585769
1602,2942.66,3905.879417,1201.753495,291.1629709,287.3599515,257.4622913
1603,2970.705962,3920.806538,1199.33625,305.0561827,283.8552019,265.0030865
1604,2915.721923,3965.823269,1207.045,303.0184423,287.6019904,261.1166442
1605,3038.754135,4016.879808,1212.259135,300.9568173,292.0993269,258.13975
1606,3037.225288,4008.206731,1208.230288,291.6173942,293.7435577,263.46475
1607,3127.718846,4090.585096,1231.102788,308.2473846,300.7975673,264.2538365
1608,3096.688058,4174.393204,1267.050291,313.1391845,302.3335825,266.4695437
1609,3224.781154,4289.907692,1285.487308,316.6796538,307.1382692,273.1177692
1610,3342.809231,4368.915385,1338.922308,317.2137692,321.8091538,276.0763846
1611,3473.841154,4578.326154,1387.152308,333.2321538,308.9017308,270.9081154
1612,3655.605922,4839.85767,1434.825534,346.3310971,323.0126214,277.9254175
1613,3895.463462,5157.411731,1519.071827,365.7924423,345.8661346,279.081375
1614,4149.194519,5569.182308,1667.527404,393.9899231,365.7068173,293.9170385
1615,4525.424175,6041.085728,1813.30233,430.5897087,399.0467864,309.4229126
1616,4996.731923,6655.010962,1990.075577,471.5344808,443.3308654,326.0259615
1617,5525.737115,7348.169038,2210.745577,516.1559615,479.2868846,338.6083846
1618,6091.528738,8033.683204,2443.400777,555.5592913,527.5350874,349.0470485
1619,6549.761827,8609.522692,2623.730192,593.6147212,577.4603077,366.7562308
1620,6903.569806,8998.199417,2764.015825,632.5966408,615.9199515,383.2617476
1621,7110.145385,9155.615385,2848.020769,658.4473846,643.4051538,392.6213846
1622,7066.212692,9056.345769,2812.24,662.6531923,654.1333846,394.9688462
1623,6864.57466,8673.632233,2705.497282,651.1101359,641.3979029,387.8430583
1624,6538.249327,8096.959519,2587.565673,627.0588173,603.3379808,380.9219712
1625,6080.790291,7531.248058,2434.60068,588.0748447,556.6779515,370.7823495
1626,5635.147115,6955.248077,2253.474615,542.198,507.0686731,344.0366923
1627,5200.909806,6371.027087,2065.241456,492.7961262,470.7727573,321.1663883
1628,4762.159223,5841.130485,1893.756699,450.5458738,439.3316893,303.1056505
1629,4396.665385,5424.205,1745.545385,426.7019231,401.3062692,295.5859231
1630,4062.217282,5064.639515,1623.603107,384.3272718,367.1280485,297.971068
1631,3794.1575,4778.455,1503.40875,371.246375,364.954,289.538875
1632,3613.04835,4608.263592,1424.964854,358.0409709,338.0661845,269.3173883
1633,3452.979417,4484.443981,1377.040194,346.8096699,323.2113301,266.8428252
1634,3321.080865,4345.062404,1327.714519,325.3685,323.9778654,262.0560096
1635,3225.109712,4250.475865,1278.531827,310.3185,312.7067115,267.4896635
1636,3161.866505,4187.852039,1257.759417,315.8763592,297.1701845,267.1826019
1637,3094.405534,4131.339029,1257.676311,313.2838544,290.1187282,264.2982524
1638,3057.128942,4049.530385,1238.137404,302.6253365,287.7515481,255.1010865
1639,2991.075049,4030.486796,1207.867087,294.1402524,288.9630971,259.2302427
1640,2984.462816,3964.055922,1177.720097,294.3918641,278.5525534,256.3456602
1641,2949.822981,3951.054423,1149.302212,289.2560385,280.1371154,253.8454615
1642,2893.392621,3922.247864,1153.930777,290.970301,268.2627961,243.4094854
1643,2865.346408,3918.844757,1150.216214,287.5757379,271.4340971,256.1571748
1644,2845.413883,3875.352427,1149.326311,291.7926602,283.2962136,262.3827282
1645,2832.264369,3820.517476,1126.407864,294.529068,275.8394175,253.6131165
1646,2821.529808,3775.397308,1122.470288,290.5377596,265.8142692,248.2586538
1647,2813.75233,3768.21233,1108.52699,290.3796117,269.4355922,249.3758544
1648,2811.296019,3792.853107,1103.596893,289.0015534,272.9870485,253.2758544
1649,2803.026311,3783.210583,1106.367184,282.353932,271.452767,252.5820971
1650,2772.344951,3762.830194,1113.52,276.3312136,261.3505534,249.476233
1651,2763.804466,3741.060971,1114.378447,276.0948738,262.2022621,247.3441845
1652,2771.037476,3726.115728,1101.597864,280.3610874,270.1250194,247.3037573
1653,2777.169515,3721.925922,1100.02068,281.6487087,266.045068,249.1285631
1654,2781.888932,3723.600291,1102.125534,277.0967282,265.4461553,249.8174951
1655,2765.723592,3757.134563,1093.846893,272.5264951,267.3411553,251.333932
1656,2771.584563,3763.281359,1096.474466,276.8536408,265.2990194,254.9263204
1657,2760.782524,3741.444078,1098.202233,284.5142427,261.8518932,255.8414466
1658,2744.934951,3743.527573,1081.306117,279.572301,253.7281068,250.0977573
1659,2773.398738,3751.756117,1087.917184,281.4811165,261.0537087,246.3547379
1660,2741.302039,3738.175534,1084.09,284.348301,256.6744854,245.5915922
1661,2750.468738,3732.882039,1096.534466,292.8590777,262.3609223,250.2573204
1662,2744.54,3759.781845,1103.485922,282.9823981,267.1775437,248.8303689
1663,2732.25699,3721.69835,1080.227184,285.4722039,256.3779806,248.8547379
1664,2715.676796,3687.555825,1075.744466,280.5554272,252.9153398,251.1548932
1665,2720.161748,3710.053398,1103.548835,276.5735146,258.4886893,238.2563301
1666,2719.472941,3715.852353,1085.81,277.7203529,262.0396471,239.3863529
1667,2750.274175,3705.221262,1052.944757,282.6319417,248.6661553,244.9143301
1668,2676.405631,3682.841748,1055.299806,278.9739223,255.6086505,254.0061359
1669,2728.968738,3694.016505,1056.280388,284.5661553,256.473699,246.6197282
1670,2716.747184,3686.276311,1066.756505,276.8855728,257.8287476,240.8346214
1671,2748.499126,3673.971942,1080.608447,284.8830485,247.349233,249.6992816
1672,2706.077843,3655.309608,1068.209608,286.4125882,244.1068824,246.8847059
1673,2682.479709,3673.338544,1055.69534,274.5407379,263.6326505,254.7653883
1674,2689.147282,3668.964369,1059.362233,284.3628835,257.6345825,250.7746311
1675,2668.842427,3631.746505,1061.227087,271.8750777,254.3602524,247.6875631
1676,2723.466471,3672.682647,1043.697353,281.9048235,263.8009118,251.9641471
1677,2727.307767,3739.817961,1053.427379,280.4716699,266.8458447,247.1249709
1678,2681.729126,3673.539515,1076.610291,274.8178058,265.1784272,249.7979417
1679,2639.064314,3606.696765,1068.614118,274.2223039,238.9576667,249.0877549
1680,2667.486019,3618.410194,1045.553883,268.7761262,244.3421748,243.482
1681,2693.426602,3682.47932,1059.668835,277.0562039,256.8857087,239.0698835
1682,2660.452549,3722.385588,1067.922157,283.147951,245.4946275,247.9272255
1683,2663.811068,3733.014466,1075.372524,275.7386117,245.4354854,250.4098155
1684,2692.685882,3714.612353,1060.166471,281.1795882,249.6597059,246.3722941
1685,2676.868544,3708.845437,1053.226505,287.1561553,249.640835,239.2027087
1686,2682.125392,3731.172745,1064.220784,286.1227549,253.1018039,240.7092255
1687,2702.13767,3736.752913,1057.499806,277.4815146,254.1203981,251.2313981
1688,2713.295294,3712.80098,1059.914902,276.509451,246.1900392,252.7299608
1689,2720.525631,3691.451748,1062.62466,289.8353204,251.4078641,251.8698641
1690,2697.972647,3695.714412,1051.557941,289.2371765,264.5208824,254.5495
1691,2682.38835,3715.980583,1057.980583,280,259.223301,245.2427184
1692,2679.359223,3702.815534,1057.359223,283.6893204,249.0485437,240.1165049
1693,2684.31068,3708.058252,1051.436893,280.4854369,249.4368932,254
1694,2706.058252,3760.252427,1058.271845,265.1067961,258.7572816,252.7572816
1695,2685.705882,3713.705882,1050.568627,269.1568627,258.8431373,250.5686275
1696,2696.815534,3712.757282,1052,260.4271845,264.4271845,252.5242718
1697,2710.407767,3700.330097,1050.601942,262.0582524,254.8737864,251.6699029
1698,2694.854369,3699.029126,1052.116505,279.5533981,243.7087379,245.223301
1699,2710.893204,3675.184466,1071.805825,269.3009709,262.5048544,248.6019417
1700,2727.592233,3730.330097,1052.582524,266.8737864,248.038835,243.4563107
1701,2685.106796,3732.116505,1051.805825,272.9320388,258.8349515,253.8640777
1702,2646.235294,3641.470588,1020.529412,280.5294118,250,266.4117647
1703,2629.902913,3640.893204,1026.951456,285.3203883,250.6796117,250
1704,2656.466019,3707.68932,1039.067961,276,259.223301,249.8446602
1705,2667.902913,3699.631068,1016.23301,275.8252427,240.1941748,246.038835
1706,2658.194175,3662.737864,1039.533981,258.3495146,259.6116505,249.9223301
1707,2669.417476,3728.601942,1032.38835,275.1262136,244.776699,257.6116505
1708,2651.372549,3668.666667,1033.862745,289.0392157,249.5882353,237.5098039
1709,2686.116505,3707.339806,1010.524272,270.1359223,242.776699,263.0873786
1710,2672.524272,3600.15534,1016.737864,268,257.7281553,257.2621359
1711,2675.117647,3626.647059,1012.882353,276.5294118,260,264.5294118
1712,2646.291262,3622.446602,1028.504854,268.0970874,253.3980583,264.3495146
1713,2657.514563,3624.776699,1057.475728,272.368932,256.776699,243.3009709
1714,2618.627451,3652.333333,1031.470588,274,262.6470588,239.5490196
1715,2620.951456,3601.68932,1010.038835,278.4854369,246.0582524,240
1716,2627.45098,3609.568627,1017.607843,269.8431373,245.8039216,251.6078431
1717,2602.834951,3607.417476,1035.980583,260.407767,253.592233,254.6019417
1718,2608.07767,3596.640777,1028.601942,262.0194175,243.9417476,240.6019417
1719,2603.058824,3613.411765,1027.176471,271.7647059,261.2941176,234
1720,2599.728155,3619.029126,1005.145631,266.0582524,255.3592233,238.9708738
1721,2569.705882,3617.196078,976.8431373,265.9803922,249.9803922,251.5686275
1722,2580.07767,3596.23301,986.3300971,263.1262136,257.4368932,255.7087379
1723,2568.862745,3582.196078,1018.666667,263.4901961,253.4117647,246.3137255
1724,2554.679612,3577.708738,1027.708738,258.5631068,243.8058252,249.4368932
1725,2569,3546,1008,256,242,253
1726,2553.825243,3536.174757,981.631068,269.6116505,242.0970874,245.1456311
1727,2550.431373,3517.921569,992.3529412,265.372549,242.7058824,244.7058824
1728,2576.627451,3506.784314,998.7058824,256.0392157,251.1764706,250.5882353
1729,2574.135922,3537.76699,968.815534,264,239.2427184,246.6601942
1730,2544.058824,3520,962.3529412,267.8235294,218.1176471,239.0588235
1731,2533.803922,3533.058824,971.0392157,264.5686275,225.0980392,238.9215686
1732,2528.368932,3542.407767,998.4854369,256.8349515,225.4368932,229.3203883
1733,2508.666667,3500.313725,975.6078431,270.2352941,236.627451,234.9019608
1734,2524.941176,3487.764706,964.8235294,260.2352941,238.5882353,245.2941176
1735,2511.262136,3527.495146,967.9805825,257.0873786,235.1067961,238.3495146
1736,2520.490196,3497.921569,979.0980392,259.0196078,230.3333333,249.5098039
1737,2525.607843,3511.803922,963.5490196,257.8039216,250.1372549,247.5490196
1738,2521.68932,3516.776699,964.8543689,264,232.8543689,249.6699029
1739,2460.823529,3502.117647,974.2352941,261.1764706,247.1764706,258.7058824
1740,2474.627451,3460.078431,968.5098039,249.5686275,256.3529412,237.1372549
1741,2479.647059,3480.078431,980.3529412,258,227.6470588,253.1764706
1742,2488.352941,3460.705882,966.7058824,257.0588235,237.7647059,247.2941176
1743,2476,3411.098039,941.6078431,249.6078431,236,241.2156863
1744,2476,3452.563107,937.223301,246.9320388,235.5339806,234.9320388
1745,2477.078431,3392.509804,927.4117647,258.0980392,230.2941176,245.0196078
1746,2498.823529,3477.411765,916.7058824,259.6470588,235.8823529,226.4117647
1747,2525.137255,3391.843137,939.8627451,247.9019608,232.0196078,240
1748,2438.862745,3376.156863,926.1372549,238.0980392,233.9803922,240
1749,2439.941176,3407.058824,929.8823529,249.6470588,253.4117647,228.3529412
1750,2474.235294,3364.254902,966.1372549,236.6862745,236.8823529,229.9019608
1751,2403.352941,3391.803922,895.3529412,252.7647059,237.8627451,228.1372549
1752,2412.588235,3352.058824,941.0588235,254,241.6470588,235.2941176
1753,2408.647059,3349.784314,931.7254902,250.4313725,231.2941176,211.0196078
1754,2387.058824,3337.784314,916.0392157,250,235.2352941,235.9215686
1755,2377.176471,3356.470588,927.6470588,241.4705882,239.4117647,238.2941176
1756,2369.333333,3303.333333,930,235,218.3333333,228
1757,2395.666667,3313.156863,943.0196078,240.5098039,222.1372549,237.3921569
1758,2376.588235,3329.117647,912.6470588,246.7647059,224,238.4117647
1759,2366.901961,3310.313725,917.9411765,251.0980392,219.3529412,244.1960784
1760,2320.705882,3322.117647,920.4901961,244.4509804,228.5686275,235.4313725
1761,2361.882353,3254.470588,902.3529412,243.4705882,224.6470588,239.3529412
1762,2311.862745,3272.372549,901.7254902,246.8627451,227.7254902,244.8627451
1763,2309.058824,3283.039216,890.0784314,243.8235294,220.254902,230.6862745
1764,2322.705882,3300.294118,897.5294118,242,222.7647059,226.7058824
1765,2347.881188,3260.910891,905.3267327,242,226,239.9405941
1766,2336.705882,3242.470588,900.8235294,240.7058824,229.8823529,236.9411765
1767,2307.686275,3238.470588,887.9607843,243.7647059,233.254902,225.7254902
1768,2296.784314,3223.058824,894.1568627,246,221.8431373,223.2156863
1769,2320.705882,3234.823529,902,240.1176471,225.7647059,221.6470588
1770,2338,3246.851485,903.1485149,242.8910891,236.2970297,224.5940594
1771,2330.176471,3265,898.4117647,245.7647059,230.1764706,230.2352941
1772,2269,3233.627451,890.7647059,241.8431373,229.3921569,227.6862745
1773,2268.764706,3198.156863,897.3529412,236.8823529,229.8431373,222.9607843
1774,2293.821782,3193.920792,879.7425743,247.1287129,220.950495,227.049505
1775,2273.058824,3162.470588,862.8235294,250.1960784,218.9411765,224.1568627
1776,2278.470588,3198.235294,880.4705882,235.2941176,222,218.8235294
1777,2275.247525,3255.069307,878.1584158,228.1782178,221.0891089,224.7326733
1778,2277.647059,3252.588235,866.6470588,236.5882353,218.2352941,234.1764706
1779,2296.594059,3257.485149,875.960396,240.6336634,214.2970297,240.2970297
1780,2296.941176,3232,885.6470588,232.1176471,216.1176471,235.5294118
1781,2294.588235,3186.117647,872.3137255,234.8627451,222,225.7254902
1782,2281.50495,3189.643564,854.7722772,230.7524752,215.980198,219.009901
1783,2283.27451,3264.176471,868.1764706,234.1764706,209.627451,227.627451
1784,2285.465347,3236.811881,878.9306931,236.6138614,220.8514851,232.6138614
1785,2288.666667,3189.333333,881.3333333,232.6666667,225.3333333,225.3333333
1786,2272.49505,3225.940594,866.3366337,232.5346535,216.6336634,213.4653465
1787,2245.313725,3238.372549,875.1372549,242.254902,220.4313725,214.6862745
1788,2231.722772,3191.108911,861.7029703,248.5544554,222.5544554,229.4257426
1789,2249.176471,3175.098039,859.2941176,241.6470588,215.6470588,225.8039216
1790,2285.029703,3181.60396,868.5148515,249.6039604,222.0594059,222.0594059
1791,2284.568627,3187.098039,872.4509804,255.5882353,224.5686275,229.4705882
1792,2288.574257,3166.990099,881.3663366,241.0891089,217.6435644,233.0891089
1793,2314.039604,3138.237624,878.5940594,239.3069307,225.6435644,230.8712871
1794,2228,3119.470588,852.4117647,240.7058824,210,232.3529412
1795,2225.366337,3206.613861,856.6336634,230.6336634,216.019802,226.3762376
1796,2218.588235,3183.529412,867.2941176,239.1764706,239.8823529,227.6470588
1797,2239.049505,3148.752475,860.5148515,229.4851485,230.950495,227.5841584
1798,2231.029703,3177.861386,845.2673267,246.5148515,233.6237624,232.7326733
1799,2222.594059,3203.881188,865.6633663,238.2772277,219.1683168,215.9405941
1800,2276,3228,876,240,214,228
