550,3646,2258,1940,486,454,770
551,3646,2258,1940,486,454,770
552,3670.342432,2232.755997,1960.736146,471.5748553,426.0512821,770.9015715
553,3729.434711,2213.66281,1981.557025,455.1107438,399.2198347,773.1107438
554,3799.955335,2244.833747,1971.042184,457.1662531,417.7915633,775.7915633
555,3751.981803,2251.450786,1979.313482,450.5492142,416.1373036,774.1373036
556,3746.481788,2186.716887,1955.708609,454.5546358,412.9635762,734.5264901
557,3719.001656,2162.478477,1959.738411,460.6953642,402.6092715,753.6937086
558,3709.124172,2137.604305,1963.852649,455.705298,410.1009934,762.7284768
559,3666.698675,2113.27649,1961.395695,444.4850993,423.2086093,745.455298
560,3500.47351,2131.918874,1962.711921,446.1407285,402.281457,749.8592715
561,3576.63245,2083.905629,1853.440397,447.7963576,405.5927152,748.2036424
562,3577.288079,2063.480132,1918.407285,443.6440397,400.192053,755.2599338
563,3533.018212,2058,1894.834437,432.031457,394.6771523,753.5695364
564,3483.194698,2067.930406,1853.527755,422.4722452,395.8193869,750.7638774
565,3459.364238,2065.496689,1856,421.6821192,403.2615894,750.7384106
566,3473.526971,1998.519502,1858.214108,428.1526971,407.6946058,745.5419087
567,3506.721992,2053.291286,1906.346888,431.4721992,401.0556017,735.5834025
568,3467.406794,2032.735708,1863.832643,436.1806131,405.5741508,754.9030655
569,3395.473074,2033.657001,1857.758078,425.3935377,390.1408451,752.4440762
570,3368.518641,2048.830157,1860.67937,414,378.2452361,748.3678542
571,3409.648425,2045.243781,1830.149254,419.4726368,391.4726368,758.9054726
572,3425.883817,2005.790871,1786.325311,443.953527,415.8373444,754.2091286
573,3417.585062,1990.853112,1809.561826,440.6340249,404.2190871,769.146888
574,3445.515755,1973.242123,1816.68325,430.6086235,392.6086235,755.9004975
575,3403.953527,1967.00083,1828.008299,417.993361,399.0091286,751.0024896
576,3373.08126,1958.759536,1839.320066,411.9800995,407.3598673,752.0199005
577,3428.780083,1949.878838,1844.86805,416.6373444,405.8240664,746.0879668
578,3453.676349,2001.33112,1859.805809,419.9568465,425.7410788,736.1294606
579,3460.55814,2033.151163,1838.686047,411.8023256,396.4883721,765.5116279
580,3493.190041,2042.59917,1871.687967,430.793361,397.7975104,736.9112033
581,3534.942739,2054.552697,1901.593361,430.4879668,400.0813278,715.1219917
582,3583.66805,2080.858091,1917.571784,429.7626556,394.9045643,723.1435685
583,3667.750623,2126.009975,1937.820449,455.1620948,391.9102244,746.3241895
584,3880.551953,2197.497922,1984.37074,450.1745636,415.1853699,736.3491272
585,4033.872093,2257.707641,2035.692691,475.6478405,411.1910299,702.3372093
586,4190.091362,2318.772425,2154.186047,506.0182724,403.679402,724.3388704
587,4343.410982,2447.946755,2225.267887,524.6339434,420.3893511,747.5607321
588,4544.377076,2605.509967,2286.714286,535.89701,444,756.948505
589,4825.379884,2697.23857,2411.765586,556.5270158,445.7572735,763.2468828
590,5033.193682,2678.950956,2436.703242,599.752286,457.3948462,758.2593516
591,5182.578073,2788.232558,2453.747508,611.448505,439.10299,787.9202658
592,5264.602831,2782.069942,2469.150708,618.9558701,450.1065779,814.5845129
593,5249.571072,2744.653367,2457.945137,626.5137157,452.7780549,826
594,5134.126351,2682.475478,2420.738155,630.3042394,450.2177889,808.4771405
595,4925.458784,2570.631141,2361.467111,621.6652789,460.7527061,761.0341382
596,4585.741882,2560.639467,2211.592007,590.0249792,422.4512906,739.3855121
597,4355.481297,2381.047382,2173.990025,541.3167082,413.7755611,742.6683292
598,4156.96173,2261.700499,2098.920133,531.6589018,408.3410982,744
599,3993.66,2198.53,2040.07,518.07,398.035,743.115
600,3865.302829,2150.868552,1996.868552,494.6955075,383.59401,742
601,3754.65,2083.55,1929.98,486.43,373.935,740.71
602,3604.65,2033.55,1883.313333,489.7633333,388.935,730.71
603,3587.816972,2028.454243,1881.545757,452.9018303,394.6372712,714.5424293
604,3478.251457,2051.002498,1880.789342,438.3680266,381.4721066,699.1040799
605,3430.812344,2055.471226,1879.122602,430.735613,381.6513761,713.057548
606,3467.623647,2043.633639,1887.257286,424,395.0890924,730.7427144
607,3488.630525,2048.210175,1910.318599,427.1526272,397.7898249,708.942452
608,3493.634696,2049.878232,1896.974145,452.1734779,396.1217681,732.295246
609,3490.912573,2091.680266,1948.486261,427.7568693,391.3688593,735.5437136
610,3515.41,2128.2,1967.63,441.78,398.47,751.73
611,3543.406172,2157.160967,1969.122602,441.0842369,416.2835696,756.735613
612,3548.19,2153.835,1986.53,429.085,434.18,745.64
613,3520.51586,2100.42404,2021.582638,446.7278798,438.3038397,739.0884808
614,3508.829716,2103.762938,1908.0601,436.7111853,424.9482471,779.1552588
615,3535.893244,2042.015013,1918.595496,456.1451209,411.6030025,786.6488741
616,3450.160267,2004.500835,1867.9399,441.2821369,421.4056761,794.0934891
617,3363.377815,2012.410342,1844.423686,425.3377815,414.9140951,788.2385321
618,3330.555927,2029.105175,1853.884808,423.6677796,405.4507513,774.3322204
619,3324.568807,2002.17181,1831.019183,425.5229358,423.9199333,769.324437
620,3269.522936,1973.814846,1779.309425,407.1743119,378.882402,764.3202669
621,3198.75188,1970.43609,1796.330827,407.5639098,415.0977444,770.2556391
622,3161.494157,1978.63606,1814.337229,410.4674457,411.1953255,764.5976628
623,3159.943191,1947.842941,1780.419382,407.4803676,411.9431913,752.7685881
624,3169.702838,1907.445743,1742.0601,399.1285476,407.345576,734.8113523
625,3158.384615,1915.267559,1762.478261,392.2441472,367.2207358,716.8829431
626,3119.923077,1910.250836,1697.26087,393.916388,375.5819398,750.3277592
627,3144.961603,1864.006678,1684.48414,394,395.0317195,717.1085142
628,3150.742475,1859.545151,1700.862876,387.7123746,396.2274247,735.6655518
629,3125.846282,1880.721805,1687.846282,382.1420217,379.1361738,738.0651629
630,3093.797659,1890.394649,1669.605351,387.2040134,367.40301,720.1989967
631,3082.91061,1866.093567,1688.187135,402.0935673,378.3659148,717.3617377
632,3076.227235,1854.397661,1664.795322,390.3976608,368.3408521,725.7159566
633,3143.902929,1849.149791,1673.700418,377.0661088,380.9338912,734.083682
634,3101.933054,1864.774895,1670.838494,388.1941423,384,702.4502092
635,3092.153846,1843.177258,1682.448161,391.1839465,384,699.4113712
636,3084.200837,1810.635983,1682.736402,385.3640167,384.6359833,719.8158996
637,3025.590301,1823.137124,1651.856187,386.4749164,386,725.5250836
638,3077.429766,1883.337793,1661.889632,399.8528428,386,712.1471572
639,3046.524288,1837.61474,1676.909548,388.4036851,356.1809045,726.9095477
640,3037.336683,1863.954774,1687.98995,384.6683417,359.321608,716.6834171
641,3044.040134,1856.874582,1682.954849,382.9949833,371.0351171,703.9698997
642,3068.295054,1836.073764,1678.752724,375.8893546,371.210394,698
643,3097.869347,1834.767169,1689.065327,366.840871,361.1959799,698.3551089
644,3087.638494,1792.783264,1693.457741,380.1205021,375.939749,700.3313808
645,3067.554812,1836.297908,1663.332218,386.8150628,372.5924686,718.7414226
646,3001.912825,1864.695725,1667.658005,386.620285,376.139145,727.51886
647,3008.824121,1851.839196,1673.055276,372.281407,383.2763819,737.3869347
648,3031.228835,1823.959765,1674,371.6948868,382.883487,730.8432523
649,3023.332775,1823.850796,1666.259849,389.1483655,378.48114,713.2958927
650,3049.818792,1877.66443,1635.077181,378.8389262,394.6577181,732.8255034
651,3006.194631,1870.95302,1616.620805,395.6174497,367.8120805,709.3355705
652,3097.728643,1875.748744,1638.432161,403.7487437,366.8743719,706
653,3093.66443,1900.281879,1659.14094,398.2013423,359.0872483,713.7986577
654,3064.751678,1923.543624,1678.295302,388.8322148,352.7919463,722.3758389
655,3090.776194,1925.428332,1701.979883,383.0611903,359.1634535,724.5917854
656,3144.987406,1908.821159,1734.720403,379.8539043,376,720.1460957
657,3064.382872,1964.236776,1811.966415,378.1746432,376,721.8253568
658,3165.744966,1989.543624,1857.583893,381.0067114,397.0469799,722
659,3254.016793,2036.194794,1901.919395,387.9109992,396.906801,716.0890008
660,3345.087248,2114.783557,1963.59396,400.6073826,403.1895973,712.8607383
661,3468.130982,2211.647355,2055.889169,419.5465995,425.0075567,717.7732997
662,3638.084034,2313.193277,2188.252101,442.8403361,446.8403361,730.6218487
663,3900.268908,2476.218487,2374.806723,464.6890756,468.6890756,750.789916
664,4130.676742,2708.56927,2532.801008,450.2149454,473.1570109,744.1074727
665,4292.394626,2980.562552,2687.714526,492.5373636,496.6397985,783.5062972
666,4368.067227,3146.32605,2777.569748,516.2487395,511.8756303,812.6890756
667,4398.843697,3173.445378,2754.994958,516.3294118,515.8554622,821.7109244
668,4392.810084,3113.751261,2637.734454,528.3932773,519.102521,816.2386555
669,4172.642017,3011.230252,2568.826891,541.8386555,514.0605042,738.9277311
670,4095.214466,2958.481077,2536.423886,505.4381833,490.7333894,781.2094197
671,4077.316541,2969.467674,2497.798489,510.0755668,504.7842149,792.6834593
672,4005.433137,2928.864592,2464.613961,509.8637511,526.2724979,797.0681245
673,3897.826745,2863.084945,2431.789739,500.4760303,536.5904121,795.7712363
674,3780.245791,2811.86532,2376.444444,483.9326599,536.3232323,786.8383838
675,3592.70143,2721.147183,2265.902439,441.7174096,544.8696384,781.1522288
676,3466.544996,2557.984861,2168.341463,434.9890664,517.9562658,760.9671993
677,3337.425926,2581.388889,2066.402357,402.4074074,493.8956229,768.0521886
678,3244.823529,2526.235294,1934.764706,386.6470588,470.3529412,765.2941176
679,3197.203704,2413.622896,1850.80303,394.3956229,453.2020202,748.8047138
680,3158.392256,2278.851852,1819.223906,409.516835,435.3703704,731.516835
681,3085.339511,2104.160067,1749.663016,405.6647009,400.6655434,728.1651222
682,3159.47599,2024.968829,1705.855097,382.0758214,387.1861837,709.6310025
683,3152.181818,2004.181818,1691.252525,396.8888889,405.959596,718.7474747
684,3116.283067,1985.361415,1727.036226,392.2409436,397.3614153,706.1415333
685,3122.239259,1969.666386,1718.522325,389.6192081,388,689.6663858
686,3128.052233,1973.79444,1673.871946,399.3074979,396.8458298,691.4355518
687,3077.269815,1998.701518,1671.971332,408.1517707,413.6020236,709.3271501
688,3146.409781,1978.46543,1720.875211,384.5430017,386.6205734,680.6593592
689,3082.153328,1958.245998,1738.461668,377.4153328,386,699.7540017
690,3099.946083,1956.662174,1728.689132,382.6554339,407.2973884,693.3513058
691,3116,1978.337268,1720.983137,391.084317,404.7807757,713.4215852
692,3097.716695,1967.762226,1727.735245,396,393.4064081,726.0455312
693,3073.738617,1910.831366,1722.522766,394.0522766,392.4940978,714.1281619
694,3112.708861,1903.417722,1642.759494,386.835443,378.3797468,754.1772152
695,3084.016878,1846.033755,1659.637131,405.4008439,386.8185654,713.6708861
696,3094.50253,1872.806071,1704.057336,396.3979764,390.9005059,702.1989882
697,3090.899578,1874.624473,1691.561181,394.2751055,404.5130802,726.1637131
698,3088.951899,1855.270886,1672.475949,383.6202532,398.3189873,733.6202532
699,3090.356118,1845.643882,1679.078481,368.0523207,383.6962025,720.6177215
700,3069.376689,1863.206081,1691.015203,374.402027,405.7989865,731.1858108
701,3030.525338,1873.341216,1716.353041,377.7804054,404.1097973,707.5371622
702,3069.029536,1848.751055,1664.345992,378,391.3755274,735.9831224
703,3071.131757,1855.935811,1652.533784,383.0675676,407.0033784,721.1959459
704,3064.087838,1858.263514,1651.131757,384.0878378,403.6587838,718.5168919
705,3071.679054,1851.35473,1640.902027,378.1283784,393.8074324,728.0641892
706,3082.627219,1852.008453,1629.682164,370.6694844,408.0084531,722.9957735
707,3036.35473,1861.518581,1648.405405,373.9239865,417.5185811,718.1773649
708,3060.003378,1829.423986,1675.432432,368.8564189,385.4239865,730.0016892
709,3034.497041,1840.858833,1667.355875,389.0735418,388.4294167,688.4480135
710,3019.807107,1832.649746,1662,396.9035533,392,705.0862944
711,3039.271344,1840.483516,1640.728656,384.9704142,392.7878276,734.7878276
712,3065.78022,1867.215554,1617.568893,370.8706678,393.0431107,736.4784446
713,3048.876481,1851.830795,1648,378.3079526,389.323181,737.4923858
714,3077.641286,1850.138748,1648,361.3874788,382.5549915,732.4162437
715,3076.893401,1826.700508,1677.51269,377.0862944,405.2994924,747.5329949
716,3112.084531,1844.885883,1708.397295,377.0228233,420.7100592,752
717,3122.771574,1874.971235,1707.964467,391.7783418,421.321489,748.2571912
718,3133.874682,1902.052498,1708.96359,404.4606266,407.8323455,734.5757832
719,3183.106599,1925.285956,1738.284264,388,395.465313,722.037225
720,3168.271186,1932.013559,1698.325424,388.0949153,423.8779661,764.0135593
721,3202.169492,1933.708475,1739.00339,399.959322,408.6237288,765.7084746
722,3223.424217,1938.206605,1726.369179,400.5977985,425.6308213,775.8154107
723,3187.268417,1907.129551,1739.913633,403.2870449,414.2777307,761.3734124
724,3122.011854,1894.204911,1750.108383,402.8433531,399.5783235,731.7950889
725,3068.277731,1900.555461,1719.176969,397.0347163,395.2430144,709.0347163
726,3044.352542,1851.118644,1659.471186,393.4711864,374.8813559,707.5864407
727,3047.742373,1842.644068,1654.386441,388.3864407,383.3559322,722.840678
728,3052.70229,1829.46056,1657.13486,381.7302799,387.1348601,691.0839695
729,3026.243861,1829.784928,1675.662997,374.9534293,398.0931414,713.5410669
730,3031.030508,1846.338983,1636.291525,370.0881356,395.3966102,723.3966102
731,3059.862595,1856.788804,1591.770992,374.5139949,386.6513995,720.5139949
732,3067.483051,1841.135593,1615.474576,385.5677966,386.6101695,729.4830508
733,3046,1818,1633.103565,374.3395586,380.721562,708.8488964
734,3046,1818,1677.24618,387.9219015,409.5840407,742.8047538
735,3040.252757,1825.184054,1640.895674,392.8736217,405.3791349,726.4478372
736,3035.733673,1811.002545,1659.128075,388.3341815,394.0678541,737.2637829
737,3042.295165,1812.931298,1676.045802,385.6590331,390.4885496,741.216285
738,3069.802889,1851.909941,1662,387.473237,395.0535259,739.1690739
739,3121.445293,1895.682782,1663.35369,388.2561493,398,771.7133164
740,3177.424936,1848.184902,1673.531807,405.2196777,398,739.4826124
741,3209.154499,1910.787776,1724.210526,394.6621392,410.9575552,715.3242784
742,3256.842105,1912.825127,1741.269949,407.8098472,416.6349745,738.9847199
743,3326.774851,1958.839422,1764.322855,412.9515718,421.0484282,731.6448598
744,3401.899745,2028.59983,1796.876805,406.4231096,424.7153781,722.1614274
745,3440.400679,2062.828523,1831.185059,404.1426146,427.6570458,740.6859083
746,3391.846939,2060.836735,1870.857143,421.9081633,433.3265306,730.9183673
747,3328.921769,1982.605442,1823.238095,450.8197279,423.122449,775.1360544
748,3314.438403,1934.679694,1836.147833,426.7782498,446.1971113,772.4384027
749,3279.28802,1935.327103,1798.384027,390.1342396,470.9617672,755.4613424
750,3227.943925,1964.037383,1767.26763,399.3237043,474.7136788,771.502124
751,3213.998298,1978.222979,1771.94383,419.7787234,473.9438298,800.7778723
752,3263.374681,1952.560748,1792.813934,392.9379779,491.6873407,804.8785047
753,3259.690213,1934.595745,1808,397.9523404,490.1548936,841.9880851
754,3215.434894,2019.702128,1808,391.1438298,512.2825532,840.2859574
755,3308.462585,2026.92517,1866.013605,409.8095238,497.6054422,844.244898
756,3389.047619,2039.619048,1886.653061,413.537415,504.5034014,853.8095238
757,3438.807496,2078.984668,1928.156729,415.7240204,512.7291312,846.9165247
758,3520.642857,2152.867347,2031.030612,420.877551,506.9591837,829.0408163
759,3698.791489,2273.46383,2154.834043,419.0808511,505.3276596,833.7702128
760,3874.110638,2438.570213,2253.557447,473.5489362,515.5404255,847.387234
761,4256.190801,2706.306644,2519.93356,493.8960818,512.746167,836.6115843
762,4821.899574,3057.130213,2766.110638,527.2459574,530.6110638,864.5753191
763,5593.023018,3546.005115,3107.97954,596.7621483,583.3964194,892.398977
764,6468.302979,4098.898723,3508.777872,700.3285106,652.0068085,915.0553191
765,7346.107417,4604.895141,3918.092072,811.9948849,702.1994885,945.4373402
766,8171.168654,5007.747871,4349.792164,893.0408859,713.1856899,984.5519591
767,8443.741056,5287.134583,4417.935264,928.8160136,750.6643952,967.516184
768,8062.938671,5102.48552,4250.180579,919.5843271,744.6882453,930.3049404
769,7566.504689,4795.70503,4051.720375,878.3017903,708.0716113,921.256607
770,7025.621483,4530.757033,3769.749361,818.4961637,659.1508951,894.112532
771,6511.853242,4293.240614,3453.242321,763.3208191,619.3259386,861.9982935
772,6085.175468,4028.991482,3181.052811,721.6882453,597.1499148,856.1345826
773,5704.955631,3806.414676,2916.551195,666.387372,574.2337884,846.4641638
774,5281.74744,3415.629693,2751.022184,630.5511945,534.9846416,812.334471
775,5043.269625,3167.861775,2591.452218,608.1228669,521.0614334,782.6740614
776,4750.320819,2948.076792,2466.244027,584.056314,482.112628,739.3088737
777,4479.547782,2751.213311,2311.088737,554.8481229,456.1945392,737.665529
778,4257.583618,2601.274744,2156.757679,528.5170648,449.1262799,751.8156997
779,4045.587031,2497.059727,2073.267918,511.8959044,439.5784983,717.6860068
780,3891.955556,2363,1983.4,490.0666667,447.6,684.1777778
781,3734.690598,2286.076923,1937.246154,495.1948718,416.8307692,697.8529915
782,3646.703072,2193.440273,1869.580205,461.4744027,397.6143345,707.1928328
783,3552.092229,2108.136635,1832.247652,443.4158839,400.0222032,701.9777968
784,3501.709402,2072.273504,1801.487179,440.8547009,401.7264957,711.3846154
785,3492.163962,2066.163962,1772.872758,442.5636208,399.381725,720.1639624
786,3460.369231,2024.85641,1775.979487,445.3589744,403.3794872,689.7282051
787,3450.112821,1954.77094,1813.586325,453.9059829,374.3196581,688.0188034
788,3507.431255,1989.472246,1814,425.2843723,392.5807003,686.3108454
789,3534.793841,1951.216424,1801.404619,433.9948674,398.7989735,715.3892216
790,3588.555081,1953.060632,1772.722459,446.6507259,386.6985482,728
791,3585.928144,1967.546621,1743.368691,453.635586,380.0889649,735.3601369
792,3542.802395,1978.273738,1744.388366,451.7707442,385.471343,742.8280582
793,3569.880342,2005.316239,1788.08547,442.3931624,389.2649573,732.8034188
794,3469.025641,1914.717949,1774.410256,459.4871795,426.8717949,724.2564103
795,3466,1968.472603,1754.068493,443.390411,391.4589041,737.2876712
796,3397.394354,1948.441403,1728.046193,442.7442258,382.6278871,737.2557742
797,3363.834046,1934,1685.510693,437.5021386,383.0829769,727.3361848
798,3327.835616,1916.520548,1669.123288,431.2054795,376.0547945,716.8219178
799,3286.136986,1891.520548,1676.369863,429.4931507,367.0410959,712
800,3323.44568,1895.343028,1653.474765,429.094953,376.8759624,713.094953
801,3381.615056,1890.210436,1696.246364,437.6492729,383.7194183,721.6492729
802,3352.772922,1927.8012,1714.435304,461.0094259,379.0694087,722
803,3455.943445,1921.069409,1731.573265,467.3573265,379.3573265,715.2133676
804,3541.14799,1940.73225,1738,477.6236099,390.6928999,724.8314799
805,3584.066838,1996.822622,1743.470437,482.092545,393.748072,729.748072
806,3615.418525,2032.137221,1761.914237,484.922813,384.4957118,728.4271012
807,3639.577055,1986.738014,1792.631849,510.5256849,388.5273973,748.5239726
808,3603.618151,2008.998288,1797.768836,498.5393836,409.0753425,704.0034247
809,3620.018868,1983.790738,1809.466552,489.8096055,378.8765009,698.7238422
810,3561.799486,1950.956298,1780.899743,497.4652956,393.6349614,706.1131105
811,3474.38765,1986.010292,1766,491.3310463,408.2675815,704.6655232
812,3400.55527,2009.244216,1758.966581,471.840617,402.622108,702.344473
813,3378.387983,1976.527039,1750.976824,454.511588,386.511588,705.5038627
814,3421.787307,1961.958834,1755.108062,450.6380789,382.212693,700.5969125
815,3420.072041,1929.368782,1715.656947,455.7838765,383.9279588,673.1526587
816,3373.950215,1934.578541,1697.553648,426.3965665,375.776824,686.8017167
817,3419.768439,1870.71012,1699.440823,426.8010292,365.838765,704.9622642
818,3387.874678,1863.680687,1721.375107,437.5347639,369.5347639,695.8540773
819,3370.518455,1873.68927,1730.06867,430.5167382,366.4824034,671.6892704
820,3435.309278,1885.046392,1718,411.5309278,361.6958763,659.0618557
821,3492.101288,1967.196567,1724.164807,419.1965665,387.7167382,668.6849785
822,3583.088412,1991.230901,1770.516738,443.2309013,370.5493562,673.8351931
823,3642.501288,1968.734764,1720.48412,458.9562232,373.3236052,662.367382
824,3671.936426,1998.493127,1732.075601,466.1391753,390.556701,664.1391753
825,3716.231959,2024.979381,1751.881443,459.2164948,388.1185567,683.5670103
826,3766.421324,2052.787618,1757.549441,446.2820292,377.5494411,689.0146174
827,3760.082474,2074.103093,1751.319588,448.7216495,376.1443299,676
828,3646.22012,2052.400688,1735.346518,474.6913156,382.7635426,675.4909716
829,3539.599312,2014.567498,1676.877042,452.3353396,387.9226139,672.0515907
830,3473.631986,2027.551161,1704.796217,423.2037833,372.7549441,672
831,3464.824742,1976.329897,1681.752577,432.1237113,370,667.7628866
832,3408.290628,1948.342218,1662.079106,438,362.0791058,673.9208942
833,3368.256234,1941.44626,1682.38865,432.0412726,365.3637145,675.7437661
834,3381.428571,1936.857143,1700.285714,421.1428571,372.2857143,675.1428571
835,3391.807229,1930.781411,1655.707401,414.292599,360.3407917,685.3666093
836,3344.096386,1911.958692,1653.958692,415.9311532,373.9862306,670.1652324
837,3356.144578,1906.795181,1648.795181,407.3253012,372.2650602,690.8192771
838,3331.790017,1869.597246,1642.175559,407.4561102,388.0172117,653.2289157
839,3304.325581,1877.209302,1654.139535,411.5348837,366.8992248,655.6744186
840,3305.502582,1897.401033,1673.901893,420.3012048,352.5008606,675.2013769
841,3336.303187,1902.756245,1681.646856,426.7562446,364.8406546,672.8062016
842,3365.243755,1909.302326,1675.445306,424,381.3781223,645.588286
843,3354.284238,1952.656331,1692.739018,423.4625323,387.4625323,635.4780362
844,3412.854436,1918.203273,1711.6882,409.6813092,373.6813092,673.3763997
845,3407.900086,1947.274763,1744.249785,442.7872524,367.4625323,688.5874246
846,3421.306897,1907.315517,1730.512069,447.8189655,384.5431034,688.2913793
847,3479.975883,1911.502153,1747.664083,438.2428941,400.7975883,681.2024117
848,3546.337931,1959.558621,1782,427.9034483,388.2482759,678.0482759
849,3591.496552,1991.427586,1800.310345,429.7655172,360.9172414,670.6068966
850,3673.496552,2049.372414,1870.689655,468.7862069,386.8206897,630.1931034
851,3851.082759,2120.062069,1853.448276,479.1310345,371.3034483,685.3655172
852,3951.356342,2224.001726,1940.517688,483.161346,387.3874029,688.419327
853,4124.094828,2282.62931,2035.784483,495.7465517,419.4086207,691.9155172
854,4381.194133,2413.321829,2121.389129,523.6341674,439.1509922,702.2415876
855,4586.547023,2625.815358,2233.268335,550.8024159,447.0232959,705.4650561
856,4706.811044,2816.850733,2370.961173,565.8515962,467.8878343,713.4063848
857,4884.136324,2883.666954,2462.626402,583.1768766,514.686799,759.9292494
858,4868.605695,2997.55824,2517.846419,626.3175151,487.0767903,742.672994
859,4781.692573,3016.937824,2475.186528,596.4645941,497.6183074,740.3402418
860,4594.947368,2899.446074,2369.002588,570.6005177,504.1570319,721.986195
861,4426.569948,2814.856649,2278.172712,537.5302245,495.9896373,719.5613126
862,4294.082902,2709.419689,2214.818653,518,485.4818653,724
863,4165.28152,2569.675302,2166.970639,515.7340242,472.3696028,721.7340242
864,4030.539326,2485.951599,2132.236819,503.8288678,448.5877269,713.355229
865,3965.97582,2414.944732,2121.303972,468.3816926,451.775475,698.044905
866,4117.962003,2333.770294,2067.763385,497.7426598,434.5043178,701.4991364
867,4125.207612,2345.66782,2139.878893,513.83391,426.083045,715.3131488
868,4163.498704,2380.582541,2106.376837,498.6672429,430.0414866,699.4589455
869,4227.60242,2428.917891,2113.782195,495.3690579,448.0535869,696.3059637
870,4310.629758,2479.986159,2179.323529,525.316609,452.0103806,694.6782007
871,4422.52204,2510.416595,2209.125324,560.0414866,427.6041487,675.1253241
872,4538.595156,2508.858131,2241.114187,543.5017301,426.1245675,703.6262976
873,4657.972318,2576.33218,2284.366782,536.5813149,427.8546713,698.4359862
874,4723.419188,2605.75108,2294.333621,536,435.9170268,698
875,4747.207972,2594.89948,2352.563258,568.8856153,443.2616984,696.6845754
876,4764.560554,2609.027682,2366.299308,579.7197232,454.3737024,713.7941176
877,4815.617647,2626.892734,2384.626298,577.884083,450.3477509,716.7941176
878,4897.787013,2637.220779,2448.683983,585.5220779,439.1030303,694.9852814
879,4971.280277,2687.730104,2491.730104,591.9100346,461.1937716,695.5813149
880,5082.00692,2729.252595,2533.252595,605.7508651,469.8442907,721.532872
881,5066.966175,2786.211622,2545.923677,619.6270598,473.406765,739.0338248
882,5127.161905,2798.870996,2504.935065,623.4354978,478.3064935,731.9515152
883,5199.851082,2831.511688,2520.678788,631.0025974,498.6735931,750.1748918
884,5229.506494,2863.885714,2552.088312,630.6077922,515.5948052,758.8103896
885,5200.006938,2860.215091,2545.583695,631.5767563,511.7918474,731.0581093
886,5131.17851,2821.97747,2503.051993,649.8284229,496.559792,703.1646447
887,5053.629116,2803.308492,2469.233969,655.9254766,504.9376083,760.8145581
888,5012.034662,2791.176776,2420.707106,619.5303293,451.2114385,740.017331
889,4910.970537,2721.140381,2420.694974,605.0450607,464.779896,723.915078
890,4860.59375,2760.515625,2406.395833,615.0034722,473.9010417,746.0069444
891,4827.306759,2726.816291,2358.682842,607.5147314,464.6187175,748.6187175
892,4766.50477,2652.168257,2298.947095,603.9895924,460.1474415,733.3894189
893,4713.090278,2612.378472,2264.013889,622.5173611,463.4548611,718.4479167
894,4755.351258,2572.926279,2277.181266,624.4943625,439.4518647,695.5212489
895,4779.635733,2666.59497,2329.219428,584.5984389,406.4943625,692.0520382
896,4762.914137,2560.359063,2321.457069,613.045967,424.7944493,703.9601041
897,4801.925282,2576.696785,2289.640313,610.771503,467.0338836,704.5543006
898,4758.936687,2556.924545,2215.392888,593.8248049,460.7372073,704
899,4709.75,2552.333333,2194,600.5,436.8333333,703.0833333
900,4715.026933,2554.399652,2212.159861,609.5464813,426.6533449,705.2667246
901,4718.265625,2504.234375,2193.265625,585.65625,423.703125,711.609375
902,4604.887924,2466.663771,2182.507385,576.8879235,408.5369244,709.7463076
903,4617.05126,2503.153779,2189.457863,589.0512598,443.2893136,706.2710686
904,4542.701998,2464.345786,2181.989574,570.7749783,413.9582971,709.2041703
905,4427.541268,2407.110339,2118.373588,543.2250217,422.0764553,685.8853171
906,4371.373913,2392.626087,2107.408696,536.3130435,412.7478261,671.8434783
907,4361.549957,2382.849696,2111.749783,542.4500434,407.8001738,687.1503041
908,4307.558645,2344.696785,2079.033884,540.4569939,419.228497,709.7827976
909,4173.660574,2301.227154,2030.057441,527.462141,412,702.2454308
910,4158.54735,2250.099044,1972.891399,535.6368375,412,692.0660295
911,4082.092094,2255.311903,2019.807124,516.5230235,412,695.5412685
912,4061.423847,2227.293299,2015.423847,509.4673629,407.4673629,674.8476936
913,4039.243478,2192.991304,2001.996522,508,402.2486957,664.2486957
914,3974.470383,2193.860627,1963.287456,503.043554,400.9912892,651.0958188
915,3906.088696,2188.766957,1934.393043,489.213913,403.4643478,648.053913
916,3871.61324,2164.275261,1932.085366,478.7212544,403.1672474,662.9442509
917,3834.149565,2198.224348,1910.909565,492.9304348,389.293913,661.08
918,3802.845217,2151.267826,1999.605217,484.2347826,351.0330435,621.08
919,3846.073171,2156.780488,1935.890244,492.4756098,392.3780488,664.0731707
920,3803.738903,2132.151436,1936.924282,489.691906,397.1279373,641.843342
921,3766.319093,2131.429817,1901.923278,484.4638187,396,633.5361813
922,3760.445605,2121.425587,1886.89121,486.6040035,399.6832028,642.4456049
923,3737.520488,2094.711421,1896.036617,486.6992153,392.0732345,648.6748038
924,3692.222802,2061.343777,1878.727589,478.0278503,371.2445605,644.3777198
925,3756.878814,1994.884045,1861.368788,485.4141238,385.3182214,637.2676548
926,3767.340889,2076.836966,1901.473409,478.4394071,401.0113339,628.5492589
927,3728.8223,2068.940767,1897.470383,458.4111498,385.6759582,657.3832753
928,3721.376963,2053.60733,1872.591623,469.1465969,398.5235602,668.1308901
929,3739.923345,2084.966899,1863.120209,487.2020906,401.5191638,677.8414634
930,3776.460733,2101.041885,1874.366492,488.2251309,395.408377,670.1780105
931,3804.172775,2099.835951,1894.699825,482.8726003,397.4816754,647.7364747
932,3795.044464,2140.955536,1903.274629,493.2920663,410,642.9555362
933,3773.465969,2163.804538,1872.390925,490.7818499,409.609075,666.0977312
934,3799.643979,2160.314136,1879.371728,504.7434555,402.6282723,667.8429319
935,3855.99651,2123.472949,1905.410122,488.530541,382.9424084,645.7661431
936,3899.333333,2182,1898.666667,494.6666667,404.6666667,650.6666667
937,3993.881223,2242.9869,1951.371179,500,411.5231441,668.9537118
938,4066.95288,2255.268761,2009.429319,507.4293194,408.4764398,672.5706806
939,4100.845415,2274.841921,2028.567686,516.8576419,419.4253275,659.7152838
940,4162.590909,2362.954545,2071,515.2727273,435.4545455,657.5
941,4138.111693,2369.856894,2182.663176,522.8621291,422.9947644,676.1326353
942,4246.314136,2418.722513,2200.115183,545.5497382,449.1727749,679.6230366
943,4360.923077,2473.902098,2231.629371,537.0839161,428.6083916,656.6083916
944,4498.538462,2546.846154,2297.538462,540.5384615,444.2307692,686.6153846
945,4609.806114,2640.246288,2353.320524,558.7703057,461.2751092,696.5048035
946,4696.517483,2736.924825,2380.012238,576.8146853,459.5804196,688.8024476
947,4769.41958,2799.101399,2381.043706,584,456.6083916,685.5944056
948,4804.31993,2786.454545,2371.886364,585.4947552,471.9073427,675.4947552
949,4771.527559,2698.944882,2390.551181,594.8976378,460,683.480315
950,4754.029746,2733.940507,2262.817148,628.1434821,460,664.2327209
951,4612.787402,2674.580927,2244.906387,597.9702537,442.9851269,665.0936133
952,4533.170306,2586.10655,2171.517904,584.1170306,441.8829694,676.3545852
953,4452.504378,2490.591944,2110.08056,569.9964974,435.1278459,674.1716287
954,4352.71916,2394.307962,2073.317585,549.864392,420.2475941,661.0419948
955,4225.721541,2298.043783,2035.472855,533.821366,405.642732,650.3660245
956,4068.225722,2211.1986,1987.510061,526.2257218,395.4785652,643.0428696
957,4054.038529,2170.633975,1903.043783,516.0910683,404,626.5464098
958,3901.674256,2118.094571,1866.2662,519.5936953,404,647.5621716
959,3826.718039,2034.591944,1829.488616,510.7110333,397.8073555,628.3257443
960,3767.079755,2022.404908,1804.392638,491.0920245,396,620.6993865
961,3787.154116,1999.581436,1773.896673,484.1050788,386.5271454,650.5236427
962,3798.669002,1968.37303,1768.469352,476.3537653,388.4500876,678
963,3734.662577,1949.442594,1772.219106,464.2226117,396.7765118,666.3312883
964,3670.606486,1919.531989,1729.702016,473.7020158,378.3085013,636.3085013
965,3651.815951,1903.730061,1748.895706,493.2638037,380.2453988,638.9815951
966,3646.557406,1838.874671,1717.344435,472.2296231,387.2567923,667.0271691
967,3558.168421,1882.189474,1784.578947,463.7263158,367.6105263,643.3368421
968,3577.614373,1922.432954,1726.022787,463.3216477,372.5731814,641.2865907
969,3574.212095,1931.702016,1715.011394,469.3724803,371.5530237,630.0315513
970,3536.266667,1889.908772,1725.094737,474.8280702,361.8596491,625.4526316
971,3529.726316,1836,1718.561404,476.5824561,358.9122807,632.5052632
972,3559.578947,1830.273684,1744.905263,476.3157895,367.0105263,625.3473684
973,3515.625988,1802.639157,1699.086918,466.8129939,370.904302,631.7260755
974,3469.971905,1814.930641,1681.527656,443.9859526,349.833187,626.4582968
975,3510.888499,1844.856892,1686.412643,442,359.2221247,619.5873573
976,3478.547368,1866.936842,1667.631579,456.9368421,368.7894737,623.4315789
977,3444.640913,1859.527656,1680.265145,462.8867428,380.9060579,636.0193152
978,3410.511424,1834.950791,1710.179262,460.2601054,367.1212654,632.6906854
979,3419.492537,1820.507463,1718.477612,451.7313433,348.7761194,624.2686567
980,3494.908772,1827.147368,1703.529825,437.2350877,368.7649123,636.4701754
981,3446.766257,1835.70123,1704.105448,434.4112478,372.685413,631.6449912
982,3430.949033,1883.1529,1628.534271,439.6836555,381.4727592,652.7346221
983,3474.604569,1854.611599,1703.297012,428.4358524,373.7398946,639.1318102
984,3427.620387,1853.637961,1701.676626,451.370826,384.685413,650.0949033
985,3436.703606,1843.152155,1727.871592,451.4881266,377.1521548,664.1759015
986,3436.845343,1838.630931,1698.281195,441.2214411,378.1880492,654.254833
987,3438.054529,1857.00088,1664.054529,433.2102023,386.5787159,651.05365
988,3477.372032,1873.577836,1714.453826,420.8970976,381.7730871,677.3403694
989,3435.094903,1846.223199,1697.149385,413.6379613,388.6063269,664.3620387
990,3514.181019,1865.55536,1654.970123,445.2724077,393.8787346,632.7275923
991,3497.079225,1800.637324,1650.559859,427.0792254,375.0792254,621.6795775
992,3489.562005,1815.148637,1675.148637,444.710642,369.0413369,624.4379947
993,3527.661972,1831.43662,1691.43662,465.6338028,360.5633803,627.2394366
994,3505.041337,1834.001759,1705.991205,452.0193492,360.9956025,630.9973615
995,3474.693662,1825.170775,1707.653169,433.7940141,367.5176056,636.2764085
996,3486.93838,1840.487676,1698.15493,435.3257042,377.790493,643.6355634
997,3462.507937,1911.513228,1715.608466,424.2433862,401.962963,662.6931217
998,3573.271127,1884.484155,1750.308099,438.4841549,415.056338,715.7359155
999,3464.116197,1903.850352,1762.632042,457.8503521,457.3098592,705.1725352
1000,3519.123793,1921.610184,1742.145742,450.6338894,460.4389816,716.4881475
1001,3518.088496,1887.504425,1730.690265,451.9823009,433.4513274,709.380531
1002,3497.122807,1865.824561,1720.385965,455.0877193,397.1578947,698.5614035
1003,3492.247788,1842.761062,1714,441.5575221,390.7433628,684.6548673
1004,3478.964912,1812.157895,1710.315789,433.6666667,405.5438596,670.1578947
1005,3451.982301,1803.911504,1706.088496,453.3097345,394.0530973,661.1681416
1006,3520.175439,1785.859649,1725.122807,425.9649123,368.1403509,639.2982456
1007,3497.368421,1784.105263,1739.157895,450.5263158,369.8947368,630.5263158
1008,3479.362832,1835.575221,1708.389381,437.0265487,379.9823009,598.3893805
1009,3463.097345,1860.336283,1707.734513,435.4336283,380.5663717,612.0707965
1010,3485.438596,1833.789474,1673.017544,445.5438596,369.2631579,622.3859649
1011,3511.646018,1835.893805,1663.292035,443.3982301,360.0884956,604.8849558
1012,3528.707965,1842.40708,1709.752212,443.4336283,358.7256637,591.2566372
1013,3540.561404,1802.105263,1748.245614,447.7192982,358.5263158,605.9649123
1014,3527.769912,1788.707965,1708.725664,413.9646018,355.4867257,610.7610619
1015,3511.876106,1822.212389,1727.929204,442,366.0707965,602.5663717
1016,3499.486726,1843.451327,1720.849558,442,373.1504425,659.2035398
1017,3560.300885,1768.123894,1712.212389,457.5752212,383.3451327,631.7345133
1018,3593.789474,1794.684211,1691.578947,443.5789474,362.3157895,622
1019,3608.477876,1789.769912,1693.876106,441.5575221,371.5929204,634.9557522
1020,3614.849558,1794.584071,1719.292035,455.6460177,387.4513274,634.9557522
1021,3630.867257,1840.336283,1738.141593,464.1415929,382.7610619,620.619469
1022,3652.318584,1848.442478,1734.778761,459.6106195,380.3893805,628.2300885
1023,3619.947368,1842.631579,1741.789474,455.7894737,382.1578947,653.2105263
1024,3797.140351,1849.649123,1783.894737,431.2280702,383.9122807,644.4385965
1025,3874.938053,1878.584071,1824.672566,466.9911504,375.5929204,633.9115044
1026,3934.442478,1915.929204,1845.061947,463.840708,385.6106195,632
1027,3978.867257,1986.619469,1874.424779,494.1946903,391.2212389,638.1061947
1028,4042.584071,2032.920354,1926.672566,506.0884956,383.079646,646.9557522
1029,4118.920354,2085.380531,1987.59292,499.8053097,375.5221239,648.9557522
1030,4163.876106,2179.893805,2048.300885,504.4070796,384.9026549,647.7168142
1031,4187.787611,2262.548673,2141.59292,500.9026549,401.2920354,656.1946903
1032,4357.911504,2362.371681,2321.911504,506.6371681,386.4247788,646
1033,4405.699115,2521.663717,2369.699115,522.5663717,397.0442478,646
1034,4617.769912,2674.513274,2568.884956,543.3274336,418.9380531,679.8230088
1035,4760.495575,2779.787611,2707.115044,560.4247788,432.2831858,683.8584071
1036,4864.123894,2876.424779,2779.061947,578.6548673,461.3097345,665.8938053
1037,4939.451327,2887.185841,2748.619469,586.159292,482.7610619,672.4070796
1038,4931.20354,2813.628319,2647.345133,582.619469,476.3362832,686.4070796
1039,4795.238938,2704.920354,2546.849558,579.079646,461.2212389,669.2389381
1040,4600.265487,2517.663717,2432.530973,574.619469,466.4778761,653.7876106
1041,4510,2392,2252,564,424,606
1042,4222.5,2229.5,2084.142857,546.1428571,409.7142857,648.8571429
1043,4103.893805,2107.20354,2009.486726,505.0619469,384.6371681,644.6548673
1044,3997.699115,2046.141593,1943.557522,478.0707965,372.6902655,599.5221239
1045,3884.672566,1997.079646,1916.902655,466.7079646,376.5840708,594.460177
1046,3844.212389,1950.053097,1885.646018,471.8053097,388.9380531,605.3982301
1047,3825.571429,1926.571429,1840.214286,480.7142857,394.7857143,592.3571429
1048,3745.769912,1931.575221,1832.247788,478.8495575,385.8761062,577.5221239
1049,3779.274336,1928.442478,1842.743363,479.079646,378.5840708,601.3097345
1050,3754.495575,1914.283186,1794.955752,452.5309735,383.8938053,631.3982301
1051,3747.061947,1926.141593,1780.123894,457.2035398,378.7964602,597.3097345
1052,3735.375,1987.196429,1811.392857,459.5178571,358.2678571,611.7321429
1053,3725.539823,1967.238938,1792.283186,470.3362832,368.7964602,618
1054,3704.857143,1923.5,1780.285714,486.7142857,368.3571429,611.5714286
1055,3726.530973,1881.061947,1798.442478,493.4513274,368.4955752,606.8495575
1056,3754.938053,1871.681416,1813.044248,485.6637168,379.380531,603.0442478
1057,3712.321429,1927.464286,1810.25,477.1785714,381.1428571,593.1785714
1058,3736.19469,1955.522124,1836.212389,482.7079646,392.5840708,599.2389381
1059,3798.141593,1930.743363,1758.336283,489.7876106,378.4247788,611.6283186
1060,3853.221239,1947.168142,1785.185841,457.380531,365.9823009,608.5663717
1061,3761.5,1942.5,1779.5,453.5,364,615.5
1062,3762.40708,1943.823009,1806.584071,466.7433628,364,593.7876106
1063,3791.482143,1942.839286,1820.839286,456.0892857,360.8392857,612.6607143
1064,3838.265487,1944.99115,1827.150442,461.6283186,374.6371681,617.8761062
1065,3910.821429,1965.964286,1839.392857,487.1428571,396.1785714,604.0357143
1066,3966.849558,1996.053097,1840.725664,476.7787611,388.4955752,644.5486726
1067,4015.821429,1986.714286,1852.803571,478.5535714,374.6428571,619.5892857
1068,3969.392857,1972.428571,1861.732143,462.4821429,381.7857143,592.8035714
1069,3962.803571,2034.357143,1851.607143,489.7142857,383.7321429,609.3214286
1070,3918.371681,1980.814159,1827.433628,492.4955752,368.9557522,599.9646018
1071,3922,1967.714286,1881.714286,490.7142857,373,597.2857143
1072,3898.785714,1952.714286,1877.428571,481.4285714,367.2857143,610.8571429
1073,3841.964602,1918.159292,1837.20354,468.9026549,356.300885,619.4513274
1074,3760.875,1905.25,1813,461.375,359.625,611.625
1075,3666.410714,1914.392857,1779.178571,461.6428571,366.25,603.6428571
1076,3660.212389,1850.300885,1774.831858,464.8849558,345.7522124,610.1946903
1077,3589.415929,1816.672566,1764.212389,436.5663717,361.6814159,611.9646018
1078,3621.25,1847.5,1692.25,453.5,365.5,631.25
1079,3622.928571,1827.428571,1697.357143,442.1785714,350.6428571,587.9285714
1080,3570.464286,1847.75,1741.642857,452.5357143,369.7857143,581.9285714
1081,3548.389381,1821.39823,1738.955752,450.1238938,372.1238938,594.7787611
1082,3511.75,1785.375,1727.875,441.125,360.5,594.125
1083,3477.839286,1786.625,1723.464286,441.3214286,369.2142857,587.3035714
1084,3514,1794.660714,1690.875,440.4285714,384.3928571,585.9642857
1085,3514.696429,1785.125,1688.125,430.5535714,345.3928571,565.6607143
1086,3519.392857,1748.142857,1749.75,449.8214286,356.0892857,623.7321429
1087,3458.678571,1762.428571,1724.75,431.9642857,365.0178571,596.9464286
1088,3482.196429,1744.928571,1714.053571,461.7857143,351.6964286,592.4107143
1089,3496.814159,1774.070796,1687.469027,429.1150442,356.1769912,581.0973451
1090,3488.571429,1786.571429,1689.714286,430.5714286,348.5714286,580.5714286
1091,3517.142857,1758.928571,1707.428571,436.7142857,342.7857143,578.4285714
1092,3535.714286,1728.571429,1723.857143,431,346.7142857,574.1428571
1093,3499,1757.5,1722,440,350,577
1094,3531.428571,1837.428571,1672.285714,436.2857143,354,572.8571429
1095,3595.928571,1751.928571,1663.5,414.5714286,343.5714286,567.2857143
1096,3494.142857,1800.142857,1701,428.8571429,382.8571429,599.4285714
1097,3532,1810.571429,1715.5,436.5714286,381.0714286,575.7142857
1098,3519.142857,1764.857143,1749.428571,430.8571429,362.8571429,560
1099,3510,1764.378378,1721.567568,424.3243243,367.027027,554.7747748
1100,3504.910714,1778.035714,1711.267857,418.9464286,358.7321429,554
1101,3508.839286,1798.482143,1719.571429,429.6607143,346.4107143,565.25
1102,3541.446429,1832.482143,1731.214286,439.3928571,349.4107143,577.2857143
1103,3597.375,1854.375,1780.875,419.625,347.625,563
1104,3638.964286,1878.142857,1775.357143,444,346,549.8392857
1105,3649.678571,1835.285714,1768.214286,444,346,548.0535714
1106,3669.053571,1868.642857,1752.410714,431.875,316.5535714,558.3928571
1107,3624.522523,1924.540541,1780.630631,436.1261261,345.6936937,560
1108,3633.785714,1876.571429,1791.321429,430.0714286,345.4285714,574.5357143
1109,3633.821429,1840.678571,1777.607143,442.6071429,340,575.3571429
1110,3657.928571,1868.357143,1805.285714,464.9285714,340,562.8571429
1111,3708.900901,1897.783784,1848.522523,467.7837838,344.7927928,554.6846847
1112,3732.75,1889.714286,1832.696429,457.7857143,353.0357143,560.3392857
1113,3764.178571,1916.410714,1819.214286,474.125,349.4642857,574.5357143
1114,3830.648649,1931.783784,1839.945946,462.6486486,346.3783784,577.8378378
1115,3852.27027,1924.576577,1838.144144,484.2702703,358.990991,572.4324324
1116,3924.642857,1956.857143,1865.928571,479.4285714,351.7857143,570.3571429
1117,3971.428571,1964,1844.857143,488,358.5714286,575.7142857
1118,4046.486486,1978.702703,1873.207207,483.4234234,374.2522523,560.8468468
1119,4055.464286,2004.285714,1943.803571,483.0892857,367.75,587.6607143
1120,4038.857143,2040.892857,1959.071429,495.2321429,346.7678571,610.3392857
1121,4059.189189,2060.702703,1934.432432,501.8378378,347.8918919,585.8378378
1122,4089.5,2032.821429,1968.178571,492.7857143,374.8214286,581.5
1123,4200.198198,2028.720721,1937.009009,496.9009009,371.0810811,603.2792793
1124,4182.18018,2035.927928,2027.099099,505.9099099,381.8918919,596.0720721
1125,4227.964286,2142.071429,1999.714286,523.6785714,396.1428571,610.1428571
1126,4298.27027,2116.810811,2002.27027,510.3243243,382.3243243,632.3783784
1127,4235.207207,2115.585586,2049.189189,500.5225225,384.8468468,622.9369369
1128,4297.821429,2135.089286,2096.696429,518.8928571,394.9642857,611.3571429
1129,4358.540541,2173.693694,2103.585586,534.954955,393.3153153,599.4054054
1130,4399.25,2228.75,2096.75,528.5,386.75,596
1131,4485.837838,2280.810811,2130.702703,528.4324324,399.8918919,610.8648649
1132,4486.107143,2316.446429,2195.732143,556.9107143,427.5892857,619.9285714
1133,4520.414414,2346.612613,2216.648649,533.8918919,405.3693694,600
1134,4583.477477,2326.792793,2254.486486,560.9189189,396.3603604,600
1135,4591.189189,2377.891892,2198.918919,546.4324324,401.1891892,631.1351351
1136,4616.285714,2422.428571,2275,542.4821429,406.5535714,595.0178571
1137,4585.855856,2466.882883,2312.522523,561.7297297,413.2612613,600.4144144
1138,4660.954955,2480.648649,2324.702703,574.2342342,418.2342342,620.0540541
1139,4736.918919,2486.27027,2346.540541,578.7567568,422.7567568,622.4864865
1140,4774.428571,2491.714286,2339.571429,575.5714286,431.7142857,610.2857143
1141,4885.90991,2506.198198,2309.657658,568.036036,448.0540541,608.0720721
1142,5032.720721,2580.576577,2371.189189,585.2072072,464.4684685,633.5315315
1143,5105.297297,2632.432432,2425.027027,616.2702703,457.0810811,641.4594595
1144,5326.918919,2706.306306,2475.477477,654.1081081,475.0990991,632.4504505
1145,5476.648649,2780.18018,2650.882883,645.7297297,474.2882883,647.4054054
1146,5776,2898.5,2768.5,654.5,484.5,657.5
1147,5986.054054,3024.810811,2936.810811,713.7837838,488,658.7027027
1148,6192.882883,3204.792793,3040.576577,718.7207207,495.6936937,668.990991
1149,6341.531532,3346.234234,3139.675676,714.2162162,512.8108108,686.1081081
1150,6397.567568,3445.621622,3231.297297,735.4054054,536.5405405,688.972973
1151,6418.900901,3554.018018,3252.702703,751.1171171,553.4774775,674.4864865
1152,6376.810811,3548.054054,3306.522523,783.2612613,540.7927928,671.5315315
1153,6320.594595,3477.675676,3229.945946,745.027027,513.6216216,679.7837838
1154,6230.504505,3405.603604,3195.711712,728.8108108,540.6486486,676.1801802
1155,6065.099099,3355.783784,3039.945946,734.8468468,511.1891892,676
1156,6019.837838,3258.702703,2979.189189,725.4054054,502.972973,668.4324324
1157,5915.351351,3162.918919,2969.315315,722,461.2252252,646.2702703
1158,5820.432432,3131.351351,2881.747748,708.5945946,448.9369369,636
1159,5748.324324,3104.594595,2809.243243,700.7567568,473.4594595,634.1621622
1160,5678.054054,3089.459459,2813.207207,689.5855856,486.0720721,624.7927928
1161,5619.459459,3106.756757,2817.63964,655.6396396,467.8198198,612.5225225
1162,5573.297297,3071.621622,2792.702703,637.1891892,457.6216216,615.6216216
1163,5514.216216,3140.486486,2787.513514,662.1081081,467.3873874,625.5135135
1164,5460.162162,3118.864865,2809.135135,635.0810811,487.2072072,647.1351351
1165,5565.243243,3192.378378,2823.837838,672.0540541,507.027027,603.027027
1166,5608.272727,3287.454545,2881.636364,653.2727273,488.3636364,600.6363636
1167,5664.648649,3282.27027,2941.243243,654.1081081,515.7837838,624.972973
1168,5666.09009,3356.792793,3024.27027,659.1531532,529.6936937,650.990991
1169,5711.117117,3480.252252,3091.009009,651.4054054,523.2252252,647.6756757
1170,5825.675676,3595.459459,3107.945946,651.8378378,526.3243243,644.8648649
1171,5942.327273,3714.381818,3142.527273,673.6363636,540.5636364,672.2
1172,6056.648649,3812.594595,3282.108108,690.2702703,541.2432432,681.5675676
1173,6143.315315,3867.90991,3397.603604,701.4414414,539.6216216,656.5225225
1174,6296.468468,3967.009009,3433.63964,715.8558559,555.8378378,681.7477477
1175,6431.2,3995,3561.8,717.8,563.2,701.8
1176,6439.585586,4026.864865,3508.648649,729.2252252,565.6036036,715.2252252
1177,6480.162162,4038.216216,3506.054054,727.7837838,571.6216216,687.0810811
1178,6591.8,3973,3465.709091,746.7090909,558.1636364,691.0545455
1179,6639.675676,3902.27027,3414.432432,762.0540541,553.1351351,689.6756757
1180,6574.126126,3854.45045,3379.90991,758.1981982,549.7117117,666.3963964
1181,6485.272727,3756.545455,3350.454545,744.2727273,548.8181818,658.2727273
1182,6460.252252,3577.315315,3282.252252,741.009009,553.981982,667.8918919
1183,6447.381818,3445.781818,3109.6,768.1818182,494.5454545,637.9636364
1184,6297.783784,3354.072072,3046.882883,741.5675676,511.1351351,624.7927928
1185,6092.378378,3155.873874,2918.954955,730.7567568,489.5135135,644.6126126
1186,5954.563636,3072.672727,2801.781818,714.7818182,472.7818182,613.8727273
1187,5845.261261,2901.477477,2747.603604,677.6036036,437.0990991,599.027027
1188,5648.436364,2829.672727,2653.527273,641.1272727,429.9272727,623.4909091
1189,5475.099099,2757.441441,2566.432432,633.5855856,430.8828829,605.6036036
1190,5288.381818,2634.745455,2510.672727,622.2363636,430.9272727,580.9272727
1191,5079.081081,2554.432432,2480.09009,600.3063063,423.8738739,591.6036036
1192,4961.272727,2532,2437.272727,591.8181818,405.0909091,602.5454545
1193,4947.297297,2459.567568,2350,584.1981982,396.3243243,591.2432432
1194,4833.527273,2484.836364,2348.690909,573.7090909,415.1818182,604.8545455
1195,4717.163636,2383.018182,2334.145455,548.2545455,406.0909091,592.1272727
1196,4545,2398.2,2265.6,540.8,400.6,619
1197,4527.603604,2419.243243,2264.414414,527.1711712,406.4144144,609.1711712
1198,4499.636364,2355.927273,2239.054545,529.6727273,381.0545455,608.8363636
1199,4436.072727,2310.690909,2231.709091,512.2181818,376.1818182,606.2909091
1200,4399.781818,2320.036364,2232.945455,508.4363636,374.7272727,593.4545455
1201,4430.594595,2335.405405,2216.432432,524.6486486,384.7027027,587.4594595
1202,4456.490909,2306.436364,2218.2,526.5818182,395.2545455,581.2363636
1203,4423.890909,2254.036364,2254.636364,513.4,377.0181818,559.5090909
1204,4440.763636,2258.818182,2239.418182,527.2181818,373.6909091,562.3272727
1205,4434,2321.657658,2279.621622,514.2702703,374.018018,586
1206,4434,2373.90991,2274.216216,546.7027027,402.8468468,586
1207,4482.872727,2313.163636,2260.036364,532.2909091,381.3090909,587.7454545
1208,4472.8,2482.254545,2323.672727,533.1272727,381.1272727,606.7636364
1209,4541.236364,2556.872727,2388.981818,538.1454545,398.5818182,610.6181818
1210,4610,2611.2,2476,544.8,408.4,590.8
1211,4672.690909,2647.127273,2549.527273,546.9818182,415.0909091,579.0181818
1212,4716.690909,2701.672727,2569.636364,551.8545455,423.3454545,595.8909091
1213,4745.636364,2796.8,2603.163636,563.2727273,428.6545455,615.3818182
1214,4781.272727,2852.218182,2691.745455,568.5818182,432.8363636,606.6909091
1215,4769.490909,2827.2,2682.945455,563.4181818,442.5818182,597.7454545
1216,4790.218182,2758.545455,2713.090909,557.8181818,445.8909091,608.7636364
1217,4793.854545,2867.636364,2731.272727,521.4545455,444.0727273,621.4909091
1218,4745.567568,2839.135135,2671.459459,533.8378378,433.6216216,608.1621622
1219,4738,2721.706422,2571.541284,556.2752294,430.440367,595.0825688
1220,4726.945455,2672.036364,2572.254545,567.5272727,441.0545455,603.0545455
1221,4648.8,2629.2,2522.8,555.6,440,597.2
1222,4557.236364,2525.563636,2433.127273,550.0727273,419.7090909,586.9454545
1223,4521.018182,2430.436364,2381.818182,553.1636364,409.0181818,583.1636364
1224,4495.927273,2396.181818,2336.727273,536.9454545,417.3090909,578.7272727
1225,4414.4,2356.618182,2242.290909,510.7272727,412.9090909,571.5272727
1226,4364,2284.690909,2193.636364,525.1272727,394.9454545,570
1227,4361.6,2228.036364,2166.472727,519.2363636,420.6181818,568.3636364
1228,4321.6,2195.309091,2141.018182,506.5090909,364.2545455,541.0909091
1229,4248.436364,2162.581818,2099.854545,507.7454545,391.6727273,529.5272727
1230,4267.981651,2135.908257,2076.642202,515.8899083,375.4862385,569.0275229
1231,4249.4,2141.2,2128,505.4,365.8,554.8
1232,4209.981818,2103.363636,2103.272727,502.4363636,366.4363636,547.6545455
1233,4171.272727,2116.418182,2049.2,507.1090909,376.2909091,563.4727273
1234,4152,2152.275229,2066.807339,509.1376147,380.5504587,571.6880734
1235,4147.854545,2137.563636,2122.145455,509.3818182,378.0727273,579.8181818
1236,4143.563636,2112.981818,2121.345455,506.9090909,383.0181818,596.3272727
1237,4160.93578,2112.311927,2100.623853,494.6422018,387.9816514,574.6055046
1238,4192.890909,2121.381818,2118.436364,508.1636364,398.3272727,608.1636364
1239,4158.345455,2092.290909,2056.618182,509.9818182,401.9636364,609.9818182
1240,4181.4,2147.8,2072.2,524.4,402,611.8
1241,4185.633028,2144.201835,2049.504587,499.8715596,393.8348624,594.0366972
1242,4170,2112.909091,2118.181818,510,408,582.7272727
1243,4162.727273,2093.090909,2084.909091,509.6363636,402.5454545,572.3636364
1244,4156.495413,2099.009174,2090.733945,502.6972477,384.9908257,571.3027523
1245,4208.563636,2126.545455,2101.745455,504.6363636,370.4363636,571.2181818
1246,4251.431193,2126.93578,2081.266055,500.2201835,379.7981651,573.266055
1247,4208.763636,2092,2096.4,490.4,399.0181818,573.2727273
1248,4191.559633,2098.458716,2105.137615,504.3853211,384.4220183,555.6330275
1249,4175.418182,2124.945455,2070.436364,502.0181818,391.6363636,569.5272727
1250,4187.266055,2131.229358,2016.201835,530.4036697,374.5504587,565.2293578
1251,4229.46789,2105.541284,2089.59633,477.1926606,392.8990826,539.5412844
1252,4226.872727,2098.872727,2063.236364,499.6363636,375.2,544.8363636
1253,4187.46789,2121.119266,2076.495413,504,370.4587156,530.587156
1254,4198.018349,2097.724771,2082,504,378.2568807,530.1284404
1255,4210.4,2091.2,2079.6,504,384.4,542.8
1256,4177.06422,2079.559633,2066.697248,505.0275229,375.7247706,535.6146789
1257,4179.890909,2116.127273,2080.781818,507.7090909,371.1272727,531.4
1258,4259.908257,2199.577982,2113.321101,505.2477064,379.3577982,537.8899083
1259,4311.211009,2212.642202,2104.807339,493.9449541,380.9724771,529.5963303
1260,4272.054545,2174.345455,2095.745455,494.2181818,374.8909091,540.3454545
1261,4242.091743,2180.954128,2152.165138,523.3394495,364.7889908,543.6513761
1262,4332,2236,2154,516,418,562
1263,4357.688073,2252.513761,2128.311927,514.1651376,405.1559633,574.8440367
1264,4415.100917,2242.311927,2162.733945,519.0091743,427.3761468,555.9633028
1265,4472.218182,2256.4,2159.563636,518.5090909,432,554.9818182
1266,4484.036697,2267.284404,2159.963303,525.9266055,420.1100917,573.1743119
1267,4491.247706,2272.311927,2149.284404,532.3119266,407.0642202,572.7522936
1268,4509.889908,2258.146789,2168.733945,527.0642202,413.8899083,585.8165138
1269,4515.394495,2251.908257,2160.844037,532.3853211,421.8715596,601.0458716
1270,4507.321101,2269.302752,2123.853211,545.3761468,407.412844,585.412844
1271,4501.163636,2255.872727,2161.4,533.5454545,385.5818182,569.4727273
1272,4494.899083,2212.091743,2175.192661,524.7522936,379.4862385,572.440367
1273,4603.59633,2304.862385,2159.119266,520.7889908,418.8256881,564.8807339
1274,4548.550459,2240.642202,2148.110092,555.6513761,404.146789,575.8899083
1275,4600.678899,2278.146789,2148,554.1834862,382.2018349,550.5688073
1276,4607.651376,2308.422018,2214.055046,560.6055046,381.6513761,576.0733945
1277,4668.93578,2299.137615,2196.788991,550.1100917,392.4036697,580.5137615
1278,4680.752294,2325.706422,2225.633028,565.8165138,390.7155963,565.4678899
1279,4700.275229,2324.66055,2240.220183,562.1284404,398.4036697,558
1280,4718.990826,2335.779817,2241.944954,556.9541284,396.0917431,556.0183486
1281,4750.550459,2365.779817,2237.266055,571.9082569,383.5229358,552.3486239
1282,4840.899083,2365.412844,2223.981651,584.0183486,380.6605505,550.6605505
1283,4921.137615,2348.990826,2231.963303,575.5412844,380.0183486,560.9174312
1284,4880.293578,2352.990826,2240.697248,565.3027523,373.6697248,578.4220183
1285,4900.018349,2357.504587,2224.990826,583.1559633,372.1651376,533.4678899
1286,4878,2352,2236,596,374,572
1287,4916.53211,2436.40367,2248.844037,599.6697248,394.1834862,551.8165138
1288,4952.018519,2450.740741,2300.555556,610.1111111,396,553.3703704
1289,5171.211009,2490.073394,2355.688073,622.6605505,396,557.0458716
1290,5254.293578,2511.504587,2433.816514,639.5779817,391.9266055,567.5045872
1291,5377.688073,2605.449541,2493.816514,650.7706422,406.6972477,540.9908257
1292,5584.440367,2725.59633,2589.009174,641.6697248,419.0275229,552.8807339
1293,5811.211009,2878.587156,2691.908257,664.4954128,428.6238532,583.1376147
1294,6049.925926,3074.962963,2814.925926,714.2222222,443.5185185,593.2592593
1295,6344.091743,3254.293578,2994.275229,740.1651376,451.1009174,615.1009174
1296,6701.431193,3449.412844,3116,788,461.706422,619.5412844
1297,7013.555556,3710,3308.888889,789.7777778,495.5555556,636
1298,7253.302752,3876.165138,3450.311927,806.4220183,510.2018349,714.8990826
1299,7335.87156,4030.293578,3608.110092,866.9724771,565.2477064,687.3761468
1300,7536.972477,3976.990826,3577.651376,871.7431193,545.3394495,699.9449541
1301,7346.66055,3914.348624,3572,829.3944954,516.7522936,664.1284404
1302,7034.185185,3728.888889,3319.611111,830.8333333,515.7037037,655.4259259
1303,6729.431193,3484.018349,3176.220183,832.2018349,480.0183486,649.6697248
1304,6456.444444,3265.333333,2978.666667,808.8888889,461.3333333,621.5555556
1305,6277.614679,3123.33945,2822.825688,760.5137615,454.4587156,592.4587156
1306,6152.513761,3005.302752,2780.330275,716.5321101,436.1100917,577.266055
1307,5994.074074,2882.703704,2710,702.6296296,420.2222222,578.8148148
1308,5836.990826,2814.348624,2618.348624,689.2110092,406.7522936,590.3669725
1309,5735.796296,2753.277778,2566.407407,651.7592593,390.6296296,562.8518519
1310,5717.724771,2731.963303,2584.550459,699.706422,394,545.3394495
1311,5648,2776,2524,652,394,538
1312,5549.851852,2746.37037,2536.962963,692.7407407,410.6666667,552.8148148
1313,5565.633028,2776.073394,2629.155963,653.7981651,406.9357798,562.440367
1314,5602.277778,2789.685185,2622.944444,647.537037,407.537037,573.2222222
1315,5634.222222,2823.944444,2635.444444,660.5,410.7777778,539.8888889
1316,5701.779817,2861.357798,2680.880734,666,415.6880734,527.6880734
1317,5702.555556,2869.555556,2683.592593,658.4814815,415.8518519,548.2592593
1318,5718.788991,2915.376147,2695.357798,669.4311927,426.8440367,552.0733945
1319,5796.777778,2972.203704,2745.944444,691.5185185,432.1296296,542.5555556
1320,5867.611111,2959.277778,2775.055556,693.3888889,417.2222222,554.8888889
1321,5925.651376,2968.311927,2799.431193,685.5779817,418.6238532,560.9541284
1322,5880.888889,3044.666667,2861.259259,669.6296296,419.037037,544.8888889
1323,5977.555556,3018.888889,2880.592593,700.5185185,445.7777778,550.5925926
1324,5972,3080,2888,682,418,558
1325,5966.495413,3012.110092,2851.302752,696.6788991,438.1834862,552.4954128
1326,5930.611111,3048.12963,2922.148148,687.8888889,434.9444444,577.2777778
1327,5960.888889,3091.351852,2892.962963,673.7037037,449.3703704,571.2407407
1328,5816.444444,3082.555556,2863.333333,686.6666667,433.1666667,559.6666667
1329,5824.220183,3058.018349,2825.266055,691.5412844,425.2293578,552.3119266
1330,5812.925926,3029.740741,2845.740741,685.7037037,433.5185185,553.2222222
1331,5766.62963,3011.222222,2862.407407,678.2962963,439.0740741,546.7407407
1332,5715.222222,3000.222222,2835.777778,668.5555556,436.4444444,535.2222222
1333,5589.481481,2969.111111,2806.481481,659.3703704,437.1481481,539.037037
1334,5523.481481,2943.407407,2756.777778,658.4814815,444,552.4074074
1335,5548.333333,2997,2743,657,439.6666667,559
1336,5458.333333,3020.888889,2781.888889,639.2222222,418.9259259,554.5555556
1337,5442.073394,3010.733945,2722.917431,612.2201835,428.146789,560.1100917
1338,5445.743119,3047.431193,2768.788991,623.2293578,435.4862385,565.6146789
1339,5389.166667,3065.5,2716.888889,627.4444444,403.2777778,552.2222222
1340,5428.796296,3036.518519,2728.462963,605.962963,393.2777778,565.7407407
1341,5359.296296,2953.851852,2755.388889,662.7407407,433.3518519,562.8703704
1342,5379.666667,2941.888889,2753.777778,624.1111111,439.7777778,566.3888889
1343,5448.407407,2945.222222,2804.481481,610.5925926,441.9074074,583.5555556
1344,5518.240741,2974.351852,2818.555556,642.7222222,444.0740741,595.962963
1345,5576.82243,3008.317757,2831.738318,658,449.2523364,595.4766355
1346,5641.518519,3025,2886.37037,651.6666667,457.0740741,590.5925926
1347,5715.222222,3060.555556,2888.777778,644.4444444,453,595.2222222
1348,5730,3061.185185,2942.777778,662.1111111,470.4814815,616.4444444
1349,5823.259259,3072,3015.962963,687.037037,486.4444444,624.4444444
1350,5873.333333,3159.333333,2963.555556,693,475.6666667,613
1351,5895.555556,3048.222222,2989.481481,676.3333333,470.1111111,596.3333333
1352,5925.037037,3156.703704,2995.444444,695.962963,475.4444444,612.3333333
1353,5833,3153,2989.333333,673,476,589
1354,5864.579439,3145.401869,2922.093458,645.0093458,471.4018692,613.1214953
1355,5889.722222,3144,2935.333333,650.5,474.1666667,573.3888889
1356,5835.685185,3134.074074,2942.555556,648.5555556,469.7962963,595.4259259
1357,5748.648148,3133.462963,2955.481481,672.4074074,453.9814815,582.6666667
1358,5760.777778,3153.111111,2967.166667,684.6666667,456.2777778,564.1666667
1359,5814.766355,3160.35514,2964.803738,689.682243,457.1401869,575.9813084
1360,5814.666667,3164.666667,2963.333333,692,439.3333333,579.3333333
1361,5861.407407,3210.814815,2975.62963,657.4814815,450.8148148,599.037037
1362,5931.383178,3218.429907,3003.943925,693.0093458,473.7570093,599.3831776
1363,5899.537037,3148.740741,2908.722222,680,461.8333333,589.2037037
1364,5754.722222,3193.277778,2913.259259,681.0185185,446.2777778,597.3518519
1365,5849.166667,3098.833333,2898.444444,701.3888889,451.8333333,584.3888889
1366,5821.17757,3119.570093,2901.626168,687.4953271,448.3738318,576.7476636
1367,5773,3042,2885.333333,681,469.6666667,587.6666667
1368,5756.336449,3045.925234,2915.719626,684.5981308,441.8130841,583.8691589
1369,5823.444444,3100.611111,2871.833333,674.8888889,451.4444444,577.8333333
1370,5847.796296,3146.814815,2869.092593,687.3703704,456.2777778,574.7592593
1371,5965.308411,3179.64486,2905.158879,700.2056075,446.2803738,592.7476636
1372,6076.518519,3235.407407,2985.62963,707.7777778,458.2962963,603.1851852
1373,6192.803738,3309.607477,3056.11215,728.8037383,487.046729,608.6915888
1374,6400.168224,3356.841121,3089.663551,750.6915888,497.9252336,628.8411215
1375,6551.222222,3426.555556,3188.666667,760.3333333,498.4444444,639.6666667
1376,6695.28972,3597.981308,3313.700935,783.6448598,507.1214953,639.4766355
1377,6912.444444,3647.277778,3329.111111,793.0555556,499.0555556,627.8333333
1378,7148.11215,3627.943925,3353.925234,816.8411215,518.2616822,663.7383178
1379,7464,3770,3610,886,522,660
1380,7810.296296,3979.259259,3626.666667,906.3703704,512.7407407,674.8148148
1381,8166.448598,4102.616822,3846.392523,940.6728972,524.0373832,658.8037383
1382,8488.504673,4297.943925,3916.953271,993.6635514,580.0186916,675.0654206
1383,8893.111111,4518.777778,4056,1001.666667,568,687.2222222
1384,9359.570093,4722.074766,4295.719626,1070.654206,571.0841121,712.2429907
1385,9871.252336,5094.280374,4554.971963,1137.439252,598.0186916,731.0654206
1386,10430.66667,5462.666667,4802.888889,1167.333333,637.9259259,751.5555556
1387,10999.57009,5775.084112,5087.906542,1222.654206,672.7663551,766
1388,11601.88785,6192.579439,5432.971963,1306.056075,698.2616822,794.3551402
1389,12271.60748,6687.981308,5771.962617,1387.401869,738.9719626,859.0654206
1390,12917,7078,6083.5,1483,794,896
1391,13500.85981,7330.654206,6442.971963,1522.747664,823.6448598,886.4859813
1392,13990.8785,7557.794393,6657.028037,1561.17757,826.0373832,897.5514019
1393,14175.08411,7562.373832,6771.420561,1616.691589,858.6542056,893.7196262
1394,14236.76636,7369.850467,6679.831776,1590.523364,871.7383178,888.1121495
1395,14157.40187,7038.11215,6511.308411,1641.28972,837.1962617,882.5046729
1396,13597.25926,6507.5,6184.240741,1576.907407,812.0925926,871.8888889
1397,12938.59813,6069.588785,5752.11215,1483.327103,784.728972,831.2149533
1398,12089.02804,5550.934579,5322.953271,1381.869159,733.9626168,839.8878505
1399,11227.62617,5034.35514,4950.82243,1295.831776,688.9158879,792.5420561
1400,10469.94393,4673.64486,4645.327103,1230.074766,641.5514019,748.0934579
1401,9793.214953,4344.392523,4380.186916,1156.71028,635.4766355,740.0560748
1402,9202.785047,4037.850467,4138.542056,1063.551402,617.9065421,719.5700935
1403,8680.186916,3857.850467,3896.71028,997.1028037,573.7009346,694.2990654
1404,8166.317757,3711.196262,3670.616822,968.2056075,562.3738318,694.8224299
1405,7731.345794,3524.841121,3539.345794,906.2803738,546,677.9065421
1406,7477.514019,3461.28972,3454.859813,828.5233645,542.2616822,643.1401869
1407,7262.373832,3387.28972,3297.383178,796.728972,519.4392523,623.2149533
1408,7094.672897,3249.196262,3263.439252,801.8878505,472.3364486,630.8785047
1409,6905.88785,3202.46729,3254.093458,800.0186916,477.9439252,612.1869159
1410,6841.084112,3185.345794,3163.327103,751.8878505,478,612
1411,6753.457944,3158.205607,3166.317757,799.588785,471.1214953,620.5981308
1412,6676.448598,3138.11215,3174.35514,785.7570093,458.8785047,607.7009346
1413,6646.754717,3111.924528,3152.45283,771.1698113,460.4150943,595.1698113
1414,6612.392523,3148.411215,3172.261682,763.9626168,455.271028,593.3457944
1415,6601.64486,3144.485981,3119.17757,752.2803738,458.0747664,587.9252336
1416,6546.542056,3113.906542,3121.53271,759.0093458,469.588785,585.0841121
1417,6518.018692,3106.766355,3169.53271,750.9345794,476.953271,595.5327103
1418,6505.962264,3112.830189,3173.358491,746.6037736,479.6603774,602.6792453
1419,6507.009346,3135.308411,3185.308411,779.2336449,484.1308411,604.3925234
1420,6616.280374,3178.056075,3199.663551,792.5233645,487.4205607,610.7850467
1421,6651.196262,3188.448598,3142.242991,784,481.5140187,598
1422,6629.188679,3207,3163.150943,787.5283019,467.9245283,595.754717
1423,6784.46729,3300.728972,3239.607477,806.2056075,478.8224299,584.8224299
1424,6808.542056,3347.084112,3308.990654,808.2242991,484.953271,592.6728972
1425,6872.093458,3474.186916,3383.757009,813.8317757,458.7850467,609.4953271
1426,7044.207547,3620.754717,3483,815.8301887,496.4339623,606.3396226
1427,7099.121495,3736.056075,3607.663551,821.1028037,535.7196262,611.1028037
1428,7231.607477,3895.308411,3741.046729,864.3925234,523.1588785,632.411215
1429,7274.716981,4002.283019,3811.226415,871.6415094,571.754717,653.9811321
1430,7486.35514,4127.53271,3898.990654,856.728972,592,654.6915888
1431,7610.113208,4141.773585,3992.754717,882.6037736,577.509434,660.4528302
1432,7677.28972,4170.037383,4049.514019,885.5700935,586.4299065,671.4205607
1433,7775.476636,4219.719626,4125.102804,887.1588785,590.5607477,680.7663551
1434,7802.113208,4194.45283,4196.641509,892.7169811,590.4528302,675.2075472
1435,7782.728972,4150,4147.757009,887.4953271,601.6074766,657.1588785
1436,7798.849057,4123.09434,4039.075472,910.8301887,585.3207547,656.6792453
1437,7726.317757,4059.869159,4013.308411,903.7943925,574.9345794,672.2056075
1438,7681.886792,4075.509434,3930.264151,886.2641509,574.6037736,678.1886792
1439,7640.226415,4112.037736,3823.320755,868.9056604,559.8113208,644.5283019
1440,7550.35514,4032.093458,3817.775701,876.3364486,573.1028037,679.7757009
1441,7589.607477,4000.317757,3814.037383,881.9439252,558.1495327,676.0373832
1442,7434.962264,3998.132075,3806.528302,872.6603774,572.9433962,698.4150943
1443,7389.233645,4010.168224,3786.878505,858.0934579,613.9813084,680.8785047
1444,7257.433962,3981.169811,3732.075472,839.7735849,603.7735849,729.9245283
1445,7282.339623,4049.471698,3695.849057,819.3962264,590.9433962,720.8679245
1446,7290.317757,4021.439252,3726.728972,804.317757,586.6168224,689.1028037
1447,7298.641509,4054.886792,3693.433962,820.2264151,558.1886792,681.7924528
1448,7270.320755,4025.849057,3757.226415,844.6603774,545.4528302,689.754717
1449,7221.383178,3986.168224,3759.17757,842.6915888,572.6728972,687.8317757
1450,7208.150943,3950.339623,3715.924528,836.5283019,576.0754717,680.1886792
1451,7222.754717,3909.509434,3724.150943,837.245283,559.1320755,689.8867925
1452,7227.283019,3924,3688.45283,815.7358491,567.2830189,691.0188679
1453,7232.654206,3915.588785,3674.411215,795.8504673,558.0747664,656.317757
1454,7283,3874.90566,3707.716981,825.9811321,550.6037736,664.1509434
1455,7360.54717,3821.396226,3743.90566,853.9811321,555.1886792,701.2641509
1456,7346.113208,3905.943396,3709.301887,814.0754717,530.6226415,665.3773585
1457,7463.471698,3938.867925,3688.830189,831.8113208,536.754717,660.754717
1458,7372.90566,3916.226415,3745.433962,828.0377358,551.8490566,675.8490566
1459,7452.320755,4001.924528,3803.90566,844.8113208,555.7358491,636.7735849
1460,7468.429907,4009.738318,3764.542056,866.8598131,538.6168224,651.3831776
1461,7531.660377,4053.811321,3745.018868,848.9056604,561.9622642,663.7358491
1462,7535.433962,4071.54717,3812.943396,868.1509434,572.5283019,653.9245283
1463,7677.207547,4087.962264,3916.981132,874.6037736,553.0566038,665.3584906
1464,7772.075472,4133.773585,3934.037736,870.1509434,559.3962264,647.6226415
1465,7830.943396,4196.943396,3988.339623,876.1886792,564.490566,639.8490566
1466,7899.09434,4241.849057,4006.528302,879.8867925,566.2264151,623.9245283
1467,7986.830189,4298.45283,3992.377358,902.5283019,563.3962264,617.3207547
1468,8037.698113,4293.698113,4009.811321,930,551.0188679,653.245283
1469,8017.396226,4212.830189,3999.358491,929.2830189,544.7169811,675.245283
1470,8002,4184.90566,3946.075472,926.1886792,549.0188679,649.3584906
1471,7974.037736,4122.528302,3879.886792,925.9245283,541.7735849,635.9622642
1472,7871.018868,4013.849057,3800.641509,929.3207547,503.2830189,635.2075472
1473,7780.830189,3898.641509,3728.113208,890.6792453,527.3207547,606.5283019
1474,7662.057143,3818.361905,3730.266667,878.952381,534.7809524,610.152381
1475,7584.113208,3749.320755,3587.150943,842.1132075,518.8113208,611.3207547
1476,7387.886792,3726.679245,3558.849057,845.8867925,479.1886792,588.6792453
1477,7376.509434,3618.018868,3568.981132,844.1698113,510.9433962,571.5283019
1478,7221.471698,3645.773585,3489.301887,823.3962264,546.6226415,583.7358491
1479,7021.188679,3525.301887,3466.377358,816.7924528,500.6792453,590.8113208
1480,6931.792453,3535.735849,3472.943396,810.0377358,510.3584906,597.9622642
1481,6863.161905,3516.628571,3412.038095,771.847619,486.0190476,587.4857143
1482,6832.301887,3508.415094,3403.245283,785.509434,466.8679245,594.8301887
1483,6755.471698,3472.226415,3414,796.1509434,460.490566,585.6226415
1484,6730.415094,3442.943396,3391.811321,770.8679245,465.3962264,602.5283019
1485,6733.047619,3431.52381,3365.333333,748.1904762,488.1904762,608.952381
1486,6684.528302,3412.358491,3375.830189,748.245283,482.2264151,581.2075472
1487,6631.603774,3396.849057,3355.113208,740.0188679,456.6226415,570.5283019
1488,6582.4,3367.885714,3288.685714,722.9142857,472.4,567.3714286
1489,6567.773585,3346.188679,3337.886792,732.7169811,476.7169811,569.1698113
1490,6653.924528,3420.037736,3401.698113,731.6981132,464.0754717,576.754717
1491,6741.27619,3465.695238,3386.152381,782.1714286,473.5238095,568.0380952
1492,6831.188679,3482.471698,3471.849057,774.2830189,479.7169811,549.7358491
1493,7077.047619,3651.809524,3444.095238,795.8095238,460.8571429,580.7619048
1494,7298,3848,3606,832,478,556
1495,7524.415094,3887.622642,3766.377358,815.0188679,483.6603774,591.8490566
1496,7656.830189,4093.962264,3893.056604,888.490566,517.6981132,601.0943396
1497,8013.942857,4183.695238,3980.07619,894.647619,547.1428571,598.647619
1498,8249.161905,4292.438095,4001.904762,901.9047619,569.3904762,620.1333333
1499,8295.471698,4203.207547,3946.603774,923.1320755,562.2264151,618.6415094
1500,8136.914286,4093.428571,3865.657143,908.0571429,533.3142857,596.8
1501,7960.339623,3957.075472,3743.188679,915.6981132,543.490566,572.8301887
1502,7746.628571,3719.390476,3559.028571,887.6571429,546.7047619,558.1904762
1503,7458.490566,3470.490566,3386.754717,857.8867925,529.4339623,548.7169811
1504,7130.47619,3276.285714,3220.761905,818.8571429,483.8095238,529.7142857
1505,6857.396226,3108.132075,3071.849057,772.0566038,444.8490566,515.6981132
1506,6598.114286,2953.028571,2962.971429,757.3142857,434.1142857,509.0857143
1507,6296.47619,2842.514286,2819.12381,734.9904762,412.7047619,502.4190476
1508,6150.490566,2777.54717,2687.075472,712,402.8867925,511.245283
1509,6053.180952,2694.990476,2656.038095,707.6190476,387.5047619,488.8761905
1510,5839.428571,2675.142857,2594.4,686.5142857,396.2285714,489.2571429
1511,5677.339623,2684.301887,2598.396226,660.9811321,375.3018868,473.5471698
1512,5642.4,2569.733333,2544.8,667.8666667,356.4,456.4
1513,5619.390476,2538.914286,2555.2,665.7714286,361.9619048,461.8857143
1514,5588.914286,2584.628571,2515.2,654.3428571,360.0571429,456.1714286
1515,5438.342857,2517.638095,2497.371429,655.847619,365.5428571,472.6285714
1516,5269.773585,2506.792453,2483.849057,666.4150943,352.1132075,454.9056604
1517,5270.571429,2501.085714,2455.790476,622.1333333,335.2571429,452
1518,5206.571429,2492.285714,2479.314286,633.6,328.9142857,453.5428571
1519,5103.485714,2484.209524,2474.971429,637.1047619,332.3428571,462.6857143
1520,5019.257143,2418.438095,2407.790476,607.6,338.0571429,456.5333333
1521,4995.245283,2368.075472,2426.566038,601.4716981,343.7358491,444.5283019
1522,4930.857143,2410.857143,2428.571429,625.4285714,350.5714286,429.7142857
1523,4917.619048,2443.619048,2379.714286,602.2857143,341.4285714,432.4761905
1524,4891.904762,2421.714286,2322.571429,575.6190476,322.3809524,441.047619
1525,4829.714286,2424.857143,2323.142857,584.8571429,323.4285714,440
1526,4843.428571,2457.619048,2349.428571,583.7142857,329.9047619,430.8571429
1527,4812,2453.333333,2326,584.6666667,326,423.3333333
1528,4757.714286,2435.428571,2350,589.4285714,333.4285714,436.8571429
1529,4858.666667,2450.190476,2357.619048,578.4761905,322,429.2380952
1530,4809.142857,2375.142857,2342.380952,572.7619048,327.3333333,416.2857143
1531,4778,2385.428571,2307.428571,542,347.7142857,425.4285714
1532,4760.666667,2411.142857,2291.238095,544.8571429,332.2857143,423.9047619
1533,4710.47619,2343.714286,2284.095238,571.1428571,315.6190476,441.2380952
1534,4720,2298,2286,554,308,426
1535,4647.619048,2303.714286,2312.666667,576.8571429,325.1428571,439.3333333
1536,4752.571429,2284.095238,2304.952381,565.3333333,326,423.7142857
1537,4753.714286,2254.571429,2268,546.8571429,336.2857143,428.8571429
1538,4765.076923,2215.673077,2242.384615,560.3461538,302.0384615,428.3653846
1539,4758.742857,2184.857143,2268.857143,540.8571429,317.1428571,426.4571429
1540,4712.571429,2172.209524,2231.67619,547.0285714,324,423.1047619
1541,4678.419048,2136.190476,2239.695238,549.2952381,313.1809524,427.4095238
1542,4690.114286,2137.6,2210.514286,545.4857143,310.5142857,433.7714286
1543,4671.790476,2157.295238,2216.209524,563.752381,302.7047619,425.5428571
1544,4667.230769,2148.923077,2217.538462,575.8461538,307.8461538,418
1545,4686.952381,2105.295238,2179.2,553.2,310.0761905,418.9904762
1546,4690.209524,2055.2,2206.342857,535.5809524,306.4761905,421.7904762
1547,4674.4,2060,2229.2,545.6,308.8,423.2
1548,4619.846154,2079.942308,2169.019231,561.1153846,308.2692308,412.75
1549,4578.742857,2041.885714,2151.2,565.2,317.2571429,396
1550,4628.8,2048.133333,2134.133333,542.8,317.3333333,401.3333333
1551,4611.038462,2052.230769,2128.942308,534.4423077,308.6730769,419.5384615
1552,4511.409524,2046,2094.342857,532.3809524,302.552381,430.1904762
1553,4550.8,2043.333333,2118.533333,518.4,296.5333333,420.6666667
1554,4524.980769,2023.576923,2147.826923,530.7115385,300,410.9615385
1555,4475.714286,1996.666667,2144.380952,498,300.3809524,400.8571429
1556,4550,1970,2112,538,308,418
1557,4473.076923,1995,2054.307692,522.6153846,315.6923077,408.3846154
1558,4435.257143,2012.457143,2062.971429,531.1428571,286.7428571,413.4857143
1559,4501.333333,2026.133333,2064,533.7333333,303.0666667,415.7333333
1560,4493.807692,2031.307692,2080.538462,537.3076923,312.6153846,411.0384615
1561,4390.038095,2019.504762,2087.12381,513.0095238,306.1904762,400.6285714
1562,4444.923077,2014.519231,2042.096154,534.1346154,301.0384615,400.9615385
1563,4426.72381,2016.780952,2081.619048,541.2190476,298.6095238,421.4666667
1564,4400.769231,2008.846154,2055,494.2307692,301.9230769,426.0769231
1565,4439.447619,2033.257143,2041.409524,511.447619,311.3142857,400.8380952
1566,4468.269231,2046.326923,2029.576923,540.2692308,302.3846154,396.2115385
1567,4429.807692,2040.942308,2017.173077,531.4230769,290.9423077,413.5192308
1568,4398.857143,2029.314286,2057.885714,510.3428571,291.9428571,416.1714286
1569,4442.923077,2002.076923,2085.615385,496.2307692,294.8846154,403.8076923
1570,4455.2,2021.2,2065.2,502.8,293.6,413.6
1571,4433.442308,2073.596154,2065.115385,511.0192308,290.7115385,435.7307692
1572,4496.538462,2052.480769,2081.807692,502.6346154,293.9038462,428.6346154
1573,4520.403846,2047.057692,2082.75,507.9038462,301.9038462,426.0961538
1574,4541.333333,2089.809524,2067.809524,515.1428571,317.2380952,411.2380952
1575,4488.307692,2101.230769,2090.769231,511,328.2307692,404.8461538
1576,4602.769231,2101.384615,2129.230769,535.0769231,304,440.1538462
1577,4508.846154,2120.692308,2101.923077,549,306.3076923,427.9230769
1578,4681.714286,2127.980952,2175.866667,526.4571429,322.7809524,414.4380952
1579,4654.519231,2153.038462,2150.173077,532.4038462,309.2115385,444.8076923
1580,4671.826923,2187.653846,2155.942308,545.8653846,349.5961538,471.7307692
1581,4738.634615,2170.865385,2222.634615,584.0769231,329.0576923,466.2884615
1582,4729.211538,2182.788462,2194.942308,536.6730769,349.9230769,456.8653846
1583,4778.266667,2178.8,2218,559.7333333,345.0666667,457.7333333
1584,4820.730769,2224.307692,2223.653846,547.4615385,342.3461538,434.8461538
1585,4835.884615,2275,2271.307692,556.6153846,326.2307692,425.2692308
1586,4937,2311.5,2276.5,573.5,340,445
1587,5065.09,2362.571346,2376.205385,585.7721346,353.5102885,443.9190577
1588,5130.172692,2359.725192,2432.090962,599.7487692,353.2441346,444.1914615
1589,5227.705,2402.220577,2403.692115,603.9865385,332.6070577,450.55975
1590,5375.151154,2492.175769,2442.498077,618.4542692,344.3555192,458.5087692
1591,5486.4625,2523.862692,2530.042885,624.6158654,355.7485,449.786
1592,5564.676346,2547.34,2555.675769,623.5553077,356.2465769,451.0250769
1593,5701.032115,2619.388077,2566.896923,641.9187692,358.8114808,464.4947885
1594,5840.882692,2643.084038,2625.032308,664.3524231,360.2793846,463.9631923
1595,5918.986923,2673.553654,2672.432885,674.1733846,364.4778654,474.0424808
1596,5981.442885,2754.088077,2670.825962,684.9261346,357.1254423,486.9700769
1597,6061.262308,2773.601923,2689.885192,695.9048077,348.3478077,471.9734808
1598,6230.085385,2832.456731,2760.215,700.9122115,366.1700192,472.0029038
1599,6358.63,2830.23,2783.645,707.449,374.68375,463.265
1600,6404.507692,2913.889231,2830.571346,728.3006923,378.4539038,466.4559231
1601,6603.497885,2966.954231,2803.702885,751.9843269,383.4919038,485.8803077
1602,6764.225728,3104.002718,2895.77534,765.2996019,385.2815049,491.1889515
1603,7009.310962,3146.700192,2985.576635,759.9897404,410.1992596,514.0355865
1604,7273.689904,3299.447019,3110.326058,806.8819519,436.490625,499.0856538
1605,7508.251154,3445.857788,3213.761923,836.6077019,425.2694135,515.0898077
1606,7830.289615,3653.117404,3425.492692,875.9644327,447.7165288,528.6167308
1607,8417.495769,3988.229808,3647.685096,910.6110481,471.701,551.7133365
1608,8939.283689,4304.253883,3828.730097,960.6517282,495.7212913,577.1229029
1609,9573.963077,4728.137308,4136.281154,1038.850769,524.5777692,626.4804231
1610,10493.99077,5186.81,4534.712308,1163.123077,568.6505385,637.9362308
1611,11491.07692,5691.217692,5043.736154,1239.472692,603.4623077,665.9861923
1612,12846.25243,6420.941068,5642.955534,1376.891942,651.9569417,725.9839612
1613,14224.3375,7185.300192,6305.10125,1506.021731,709.7649231,786.9837308
1614,15869.89327,7971.99125,7005.111058,1677.437885,756.5997692,838.7049904
1615,17611.15534,8855.387184,7834.816408,1841.05932,824.014835,891.9351845
1616,19560.81923,9678.516154,8685.548846,2070.381346,902.3931154,965.5175
1617,21450.875,10479.35423,9433.200192,2264.036731,957.0059423,1012.349923
1618,23122.56796,11064.50388,10057.71845,2465.363398,997.7873301,1039.723981
1619,24571.85577,11376.34327,10541.14135,2654.002788,1019.132308,1089.99625
1620,25542.00291,11420.20777,10766.36019,2776.818544,1021.060485,1099.693592
1621,25873.00769,11175.58462,10637.56154,2846.397692,1011.73,1067.736923
1622,25592.53462,10644.48462,10206.54115,2859.605385,970.5974615,1036.748462
1623,24666.61845,9850.584466,9549.587476,2803.33466,903.7896311,975.6921359
1624,23158.56827,8914.976058,8723.959615,2664.893558,838.3449712,905.048625
1625,21262.08155,7900.566796,7812.662039,2488.451456,759.4149029,839.3635243
1626,19179.14615,6983.782115,6887.931923,2294.048077,679.7795192,769.3143654
1627,17077.04466,6194.490777,6034.017379,2059.599417,631.251767,724.347767
1628,15205.12524,5472.663786,5300.347961,1835.299223,574.2463495,653.4696311
1629,13515.95385,4866.105385,4721.422308,1641.857308,503.5485769,617.5036154
1630,12059.49223,4402.059903,4243.214563,1446.908058,475.8750971,573.9003301
1631,10838.445,4032.87875,3827.51,1355.645,448.64525,547.06475
1632,9801.360388,3788.783981,3520.974272,1207.715728,428.1885728,531.6642816
1633,9012.671262,3501.95932,3311.042816,1097.807573,400.9703398,525.9122233
1634,8422.840769,3281.268654,3048.852596,1018.657298,369.6885962,503.07825
1635,7972.533077,3162.557115,2999.939135,962.9005673,377.0751346,484.95325
1636,7607.72767,3024.961456,2854.006505,903.6033204,369.7749417,482.9919223
1637,7225.107864,2924.456602,2769.344757,855.678466,369.0305534,470.1920777
1638,7035.394808,2854.495673,2705.528654,837.1872692,354.0142692,459.6697981
1639,6887.088641,2769.307573,2635.625534,820.6086311,341.6639612,456.7973398
1640,6675.52767,2657.069515,2554.747476,778.5142621,340.6278835,444.9048155
1641,6517.090673,2621.3225,2541.142981,766.1749904,343.8413558,423.2881538
1642,6412.662816,2601.710097,2488.657476,753.0079223,334.59,435.1633398
1643,6268.218932,2552.9,2444.021359,732.5678058,322.6101553,430.1288155
1644,6195.51699,2503.900971,2412.07466,727.3130291,330.3451845,429.1816796
1645,6123.916019,2469.057282,2401.709612,713.147301,328.4382913,430.6067282
1646,6013.330481,2450.322019,2384.573462,699.3395192,319.0700192,427.0465
1647,5972.665437,2419.056699,2353.631845,693.825932,319.8305437,428.9271359
1648,5939.925631,2394.905243,2338.67068,693.2517573,314.153068,420.4164563
1649,5895.071359,2389.835825,2301.166505,684.0658058,322.3301262,426.7465631
1650,5846.371165,2363.948447,2266.323981,674.0696311,328.2724757,433.9921748
1651,5800.801068,2348.80165,2245.438447,672.0443204,331.9410291,423.364068
1652,5762.809612,2336.233495,2224.989515,662.2544951,328.8795922,407.4673301
1653,5715.540194,2309.737379,2225.280777,657.6085728,311.6739612,403.3146117
1654,5637.380971,2269.492524,2207.514757,658.2580485,307.2763301,409.0628058
1655,5581.511748,2239.334369,2186.970194,652.0694175,304.5623981,409.0051262
1656,5594.674854,2266.568932,2201.410583,655.4561748,298.8648447,412.8572427
1657,5560.08233,2237.286019,2169.613495,648.7666311,302.073466,410.0440583
1658,5528.019223,2222.250097,2145.744563,659.132165,312.4120097,410.7443495
1659,5496.17932,2221.959806,2157.278641,666.0476214,310.9158058,412.1352718
1660,5519.314078,2237.421553,2143.17301,656.6378738,304.3248155,404.2296408
1661,5501.71233,2231.772427,2169.479126,635.5963689,308.9607087,408.6067379
1662,5439.235631,2217.117864,2167.09835,624.7810485,306.9569612,400.6405049
1663,5426.466699,2205.046505,2095.728447,645.7212427,302.9904078,397.6452136
1664,5369.551748,2157.312136,2109.225534,654.5598835,309.9398447,408.8723981
1665,5374.26165,2160.292816,2083.199223,636.5500485,303.2074466,404.290233
1666,5383.899412,2124.214706,2097.244706,629.0232941,306.0129412,411.9658235
1667,5284.968447,2140.272136,2078.388738,628.8116893,309.8118058,390.1084757
1668,5272.921942,2112.131942,2084.768835,630.7074175,307.9314757,396.7080583
1669,5359.116117,2114.326117,2057.65233,642.849165,298.5790485,419.4138835
1670,5269.90932,2111.506117,2026.073495,622.2551068,303.6801942,416.742466
1671,5227.970971,2104.350291,2041.663786,634.3213689,300.3418447,415.1386311
1672,5242.273922,2087.326275,1984.320196,657.4339412,304.7696863,416.2788431
1673,5181.502039,2074.521553,2053.853301,625.008233,300.8407961,417.8236699
1674,5204.183883,2111.015728,2053.467767,630.587932,309.8264369,408.9359223
1675,5218.844078,2071.028932,1997.114369,627.8586505,291.0749029,394.6069126
1676,5148.615,2052.911471,1927.885882,613.6660882,306.1287059,403.2507647
1677,5193.573204,2071.671068,1948.938447,608.8673786,288.4293107,400.3151359
1678,5147.375534,2074.750291,1941.115146,623.0300971,292.9209223,417.1429029
1679,5163.381176,2088.174216,1957.114314,631.8713039,303.2760392,415.1481471
1680,5231.922913,2057.687961,1924.233786,625.8541456,315.2678738,400.8633107
1681,5205.103495,2033.503495,1947.704854,607.6735631,307.2799126,386.0607864
1682,5187.208725,2031.114118,1937.477941,608.566549,302.7105294,400.4830294
1683,5184.548544,2020.746699,1908.338155,606.0996602,303.5574272,420.1269126
1684,5124.147059,2010.234706,1917.174706,605.0938235,303.4385294,430.7081176
1685,5110.065631,2008.896699,1939.629806,606.6848447,290.6712621,423.376767
1686,5169.402843,2008.613137,1940.121373,611.7864804,288.4551961,420.1327255
1687,5150.513398,1986.22699,1920.172816,602.2646893,291.716165,414.2125049
1688,5102.788431,2008.763922,1909.845098,603.6999216,284.7741176,404.9979608
1689,5116.138155,2024.00932,1894.832039,620.3851456,283.8056117,407.927534
1690,5115.129118,2044.712647,1874.455882,604.8717647,289.1827647,414.4471471
1691,5089.669903,2069.436893,1861.262136,583.2038835,295.184466,416.0194175
1692,5028.893204,1989.359223,1864.135922,597.4951456,297.0485437,402.6213592
1693,5010.932039,2007.223301,1893.165049,610.407767,285.8834951,392.7184466
1694,5095.436893,2037.281553,1875.378641,588.9708738,274,396.7572816
1695,5066.313725,1983.686275,1879.117647,601.7058824,277.4117647,395.1372549
1696,5070.349515,2004.291262,1890.427184,608.0970874,286.5242718,399.0485437
1697,5135.514563,2010.349515,1869.68932,609.8058252,288.9320388,405.7281553
1698,5161.650485,1973.223301,1827.825243,598.038835,294.8543689,415.5533981
1699,5092.796117,1980.446602,1864.563107,604.6019417,305.3009709,408.4466019
1700,5098.427184,1991.708738,1825.533981,600.3300971,295.592233,414.1747573
1701,5053.76699,1980.912621,1855.436893,614.9320388,263.3592233,382.0970874
1702,5056.411765,1919.411765,1836.529412,619.5294118,301.8823529,399.5882353
1703,5097.786408,1997.495146,1840.504854,592.9126214,280.6796117,414.0970874
1704,5040.15534,2016.291262,1821.553398,578.2330097,289.223301,388.1553398
1705,5044.601942,1974.194175,1859.786408,584.2718447,270.3495146,392.0194175
1706,5104.796117,1993.61165,1838.427184,611.4563107,305.3009709,393.961165
1707,5151.669903,1900.757282,1796.135922,617.7087379,300.2912621,395.9029126
1708,5031.058824,1966.784314,1862.921569,591.9215686,273.9215686,375.5098039
1709,5038.252427,1944.912621,1844.524272,608.0582524,293.6699029,408.3106796
1710,5031.262136,1975.203883,1779.087379,632.7184466,285.5145631,378.7961165
1711,5079.470588,1915.176471,1790.470588,578,287.4117647,399.5882353
1712,5040.135922,1941.961165,1861.669903,581.2038835,269.8446602,395.7475728
1713,5072.990291,1932.485437,1833.009709,596.7378641,272.368932,390.815534
1714,5054.568627,1893.921569,1798.764706,593.8039216,283.2941176,390
1715,5032.543689,1894.466019,1815.92233,590.5048544,293.4757282,404.9514563
1716,4998.980392,1924.117647,1787.72549,588.5490196,281.4901961,401.2941176
1717,4957.242718,1894.854369,1815.941748,583.8058252,284.3883495,398
1718,4981.514563,1891.398058,1828.640777,602.0970874,286.6601942,393.9805825
1719,5003.882353,1863.058824,1800.117647,595.1764706,269.1764706,379.0588235
1720,4936.407767,1841.514563,1793.456311,600.9126214,274.9126214,374.4854369
1721,4914.333333,1903.392157,1792.019608,596.8431373,274.4313725,386.7647059
1722,4929.145631,1924.23301,1775.398058,601.7475728,280.6019417,389.4174757
1723,4935.490196,1866.27451,1768.196078,604.3137255,287.8039216,387.0980392
1724,4957.825243,1830.951456,1747.980583,582.2718447,279.7087379,376.4660194
1725,4909,1868,1732,585,266,384
1726,4845.902913,1876.504854,1763.592233,597.2427184,261.8058252,378.2135922
1727,4850.705882,1865.647059,1765.137255,582.9803922,267.8039216,361.0196078
1728,4862.627451,1866.980392,1728.27451,575.4509804,275.1764706,372.8627451
1729,4892.757282,1817.68932,1728.446602,584.0776699,281.184466,381.3398058
1730,4904.705882,1810.823529,1728.941176,593.8235294,277.7058824,388.1764706
1731,4877.098039,1849.607843,1732.705882,595.6470588,270.372549,371.8431373
1732,4886.951456,1831.262136,1746.640777,589.3592233,263.3203883,360.1165049
1733,4886.509804,1759.764706,1740.235294,592.627451,265.7647059,372
1734,4829.647059,1787.411765,1731.411765,594.5882353,281.0588235,376.7058824
1735,4846.368932,1822.582524,1719.126214,593.2815534,287.6699029,382.5631068
1736,4840.529412,1780.235294,1694.411765,582.0784314,264.9019608,375.8431373
1737,4826.980392,1768.352941,1703.490196,572.7058824,275.4901961,389.627451
1738,4797.631068,1840.990291,1701.864078,579.1456311,262.8543689,359.7087379
1739,4813.882353,1792.705882,1756.352941,566.9411765,271.5294118,380.5882353
1740,4860,1776.156863,1755.490196,566.3921569,260.627451,373.372549
1741,4851.764706,1815.607843,1748.039216,590.2745098,265.0980392,369.1764706
1742,4803.764706,1791.529412,1782.235294,589.4117647,271.0588235,364.7058824
1743,4827.490196,1819.960784,1754.784314,569.6078431,265.372549,368.627451
1744,4789.572816,1839.398058,1755.631068,568.1747573,276.7572816,358.1747573
1745,4833.176471,1852.470588,1684.705882,593.1176471,263.2745098,383.0196078
1746,4855,1784.411765,1773.882353,576,287.2941176,364.1176471
1747,4821.784314,1798.117647,1704.568627,575.9607843,264.1372549,367.9411765
1748,4800.215686,1809.882353,1761.431373,572.0392157,277.8627451,362.0588235
1749,4774.764706,1780.882353,1690.176471,585.5882353,272.1764706,369.7647059
1750,4775.901961,1808.529412,1686.098039,566.9803922,260.5882353,358.5882353
1751,4757.372549,1782.058824,1643.156863,564.1372549,254.4117647,371.0392157
1752,4850.823529,1759.941176,1674.647059,587.7058824,261.2941176,381.1176471
1753,4811.823529,1784.764706,1683.352941,566.8039216,258.4313725,355.2352941
1754,4711.764706,1796.72549,1673.529412,572.7254902,268.4705882,365.9607843
1755,4752.588235,1760.470588,1672,556.9411765,271.7058824,376.5294118
1756,4720.333333,1757.333333,1620.333333,562.3333333,245.3333333,356.3333333
1757,4640.392157,1731.960784,1650.686275,559.1176471,259.5294118,371.5294118
1758,4631.941176,1743.470588,1658.411765,550.0588235,270.3529412,366.4705882
1759,4652.588235,1720.117647,1645.607843,560.3921569,262.7058824,342.3137255
1760,4632.333333,1689.352941,1658.607843,554.9411765,270.5686275,348.0784314
1761,4626.941176,1723.176471,1672.823529,550.5294118,271.0588235,344.6470588
1762,4628,1715.098039,1664.54902,562.8823529,251.3921569,349.1568627
1763,4636.352941,1703.215686,1657.215686,580.5294118,252.3529412,350.6078431
1764,4637.294118,1700.647059,1637.058824,575.1764706,249.2352941,345.9411765
1765,4639.980198,1711.940594,1631.980198,558.0594059,264.5742574,353.2871287
1766,4617.411765,1736.117647,1609.411765,561.0588235,253.2941176,342.4705882
1767,4650.431373,1727.176471,1618.588235,554.7058824,250.7843137,347.8039216
1768,4623.294118,1706.27451,1640.509804,541.9215686,243.8431373,351.1372549
1769,4617.411765,1701.176471,1654.235294,552.1176471,244.2352941,353.8823529
1770,4572.534653,1716.930693,1632.435644,555.1089109,245.4059406,345.3663366
1771,4547.470588,1698.941176,1591.882353,552.2352941,243.1176471,336
1772,4555.215686,1664.137255,1601.882353,547.5294118,253.7058824,348.9411765
1773,4523.137255,1660.235294,1608.411765,548.2352941,262,363.1176471
1774,4582.792079,1683.168317,1597.029703,557.029703,260.990099,349.8415842
1775,4633.568627,1702.941176,1604.901961,563.9215686,259.0196078,342.8235294
1776,4590.823529,1698.470588,1608.117647,563.2941176,265.5294118,348.2352941
1777,4555.960396,1676.336634,1589.60396,539.7821782,271.2673267,344.9108911
1778,4501.117647,1690.882353,1578.823529,527.7058824,257.4117647,338.9411765
1779,4479.881188,1691.683168,1609.584158,541.7029703,250.8118812,338.5148515
1780,4526.235294,1636.705882,1612.117647,527.5294118,253.4117647,350
1781,4569.764706,1620.235294,1563.098039,521.254902,244,350.7843137
1782,4578.217822,1610.277228,1539.247525,549.5049505,244,342.970297
1783,4530.078431,1642.862745,1558.313725,548.372549,244,336.7058824
1784,4498.950495,1683.623762,1590.534653,545.4653465,246.7722772,349.2277228
1785,4528.666667,1674.666667,1585.333333,558,249.3333333,342.6666667
1786,4489.564356,1632.435644,1584.19802,563.029703,246.5346535,347.6039604
1787,4479.392157,1645.647059,1576.607843,545.5686275,252.6078431,360.3529412
1788,4495.80198,1648.831683,1583.168317,538.2772277,259.1683168,345.6831683
1789,4548.784314,1633.254902,1592.156863,532.3529412,264.8627451,334.3921569
1790,4546.257426,1632.178218,1585.60396,526.4554455,243.4257426,341.3663366
1791,4480.333333,1645.098039,1587.176471,525.9215686,244.8235294,329.9607843
1792,4498.257426,1630.455446,1564.09901,538,265.6237624,338.7326733
1793,4491.60396,1634.178218,1577.128713,538.8712871,244.8712871,341.9009901
1794,4544.294118,1640.764706,1582.235294,546.5294118,249.6470588,327
1795,4470.356436,1633.366337,1613.247525,558.7326733,254.4950495,354.7524752
1796,4443.176471,1626.588235,1600.117647,537.7647059,247.2941176,354.8235294
1797,4454.39604,1643.247525,1562.554455,547.2673267,247.4851485,339.6831683
1798,4567.366337,1615.623762,1604.732673,552.2178218,264.8118812,338.8910891
1799,4467.287129,1607.821782,1582.118812,543.3861386,254.950495,340.950495
1800,4438,1644,1558,552,236,322
