550,3610,2044,1068,950,672,660
551,3610,2044,1068,950,672,660
552,3575.740281,2022.362283,1046.362283,950,673.8031431,678.9330025
553,3545.107438,2025.990083,1039.438017,963.8842975,682.1090909,694.2247934
554,3577.751861,2101.498759,1084.580645,995.8312655,696.3325062,674.2084367
555,3607.528536,2081.647643,1041.569892,962.7460711,683.0984285,675.8626964
556,3661.619205,2166.538079,1072.918874,988.8460265,695.6639073,672.9635762
557,3724.953642,2179.913907,1081.652318,993.3046358,677.6970199,668.4784768
558,3819.380795,2201.519868,1072.534768,977.557947,681.0778146,668.4884106
559,3885.140728,2243.089404,1069.761589,960.9701987,693.4470199,676.8509934
560,3818.592715,2234.703642,1091.889073,963.5778146,651.7996689,690.4519868
561,3802.036424,2242.981788,1067.054636,958.6109272,696.5016556,672.2400662
562,3798.548013,2241.096026,1107.559603,975.4238411,706.3559603,684.5198675
563,3731.543046,2224.493377,1090.771523,989.7533113,694.7086093,695.5380795
564,3664.250207,2208.94449,1085.388567,993.7083679,686.2916321,707.6387738
565,3609.198675,2201.476821,1132.195364,1002.195364,684.1125828,718.7384106
566,3486,2192.458091,1178.152697,1047.847303,663.3742739,716.1377593
567,3486,2202.416598,1181.472199,1044.527801,693.2497925,762.6107884
568,3509.690141,2183.096935,1194.541839,1050.967688,695.2129246,749.0969345
569,3498.989229,2134.079536,1210.505385,1052.949461,689.7978459,745.2526926
570,3470.801988,2088.094449,1207.264292,1049.877382,685.2924606,745.0472245
571,3443.784411,2060.514096,1179.621891,1047.094527,681.4461028,730.1625207
572,3398.697095,2017.976763,1159.256432,1051.512033,669.7211618,703.6514523
573,3448.489627,2016.317012,1106.144398,1016.657261,649.8041494,678.7551867
574,3373.477612,1978.434494,1077.217247,1007.31675,648.6832504,657.9004975
575,3309.981743,1952.994191,1063.99668,984.9825726,646.9975104,658.006639
576,3317.041459,1931.47927,1042.179104,969.9402985,638.0597015,666
577,3369.307884,1911.878838,1006.637344,973.3958506,624.7253112,661.219917
578,3334.453112,1963.33112,1009.956846,928.5825726,618.0863071,636.3236515
579,3322.523256,1913.174419,1008.360465,909.9651163,604.8837209,622.8837209
580,3343.392531,1946.185892,1010.59917,925.4937759,631.8904564,623.8987552
581,3342.569295,1953.691286,999.5286307,929.2846473,645.1219917,643.2680498
582,3347.191701,1939.095436,987.2381743,928.8099585,642.6190871,649.6182573
583,3379.386534,1944.32419,986.6483791,942.0448878,642.882793,626.7481297
584,3316.211139,1934.349127,966.6982544,930.407315,636.2327515,655.0108063
585,3453.460133,1935.60299,977.2209302,946.0299003,632.7940199,631.9551495
586,3436.171096,1947.377076,977.4717608,924.717608,629.4717608,624.7358804
587,3433.803661,1956.780366,971.3660566,915.5607321,629.8535774,622.1464226
588,3455.975083,1964.717608,973.076412,917.872093,634.358804,627.076412
589,3425.724023,1970.72818,988.9958437,906.7448047,638.7448047,646.5103907
590,3384.161264,1935.815461,982.3458022,898.4322527,630.4322527,663.1354946
591,3419.79402,1951.322259,944.2059801,872.8039867,611.10299,646.6777409
592,3387.875104,1921.308909,966.2131557,910.602831,644.4079933,624.6544546
593,3362.902743,1912.638404,990.5137157,934.3890274,652.6533666,622.1246883
594,3375.305071,1953.436409,990.3474647,918.1296758,637.3915212,630.3042394
595,3408.334721,2016.631141,979.6502914,893.9317236,647.3688593,623.7185679
596,3439.975021,2006.639467,1006.294754,937.2289759,657.3605329,607.0657785
597,3524.473815,1987.326683,981.5461347,943.1122195,665.7805486,627.7855362
598,3622.397671,1982,992.2945092,917.1680532,642.3876872,636.4392679
599,3737.26,2012.975,981.875,918.585,621.575,625.61
600,3830.261231,2065.768719,968.3194676,938.1447587,613.797005,618.2612313
601,3862.105,2103.72,1006.86,926.28,614.02,638.065
602,3940.438333,2117.053333,1013.526667,912.9466667,660.6866667,623.065
603,3966.094842,2130.366057,1020.183028,938.2778702,643.9051581,637.4575707
604,3974.421316,2118.261449,1024.421316,956.8959201,611.3655287,651.6852623
605,4033.030859,2171.172644,1065.482902,959.6130108,620.3219349,653.6130108
606,4155.009159,2271.059117,1116.544546,965.4354704,660.5345545,656.7127394
607,4339.384487,2335.661384,1124.305254,996.6305254,677.7898249,683.9933278
608,4763.070892,2444.085071,1174.346956,1001.634696,676.1217681,715.6864053
609,5186.103247,2651.139051,1289.147377,1097.710241,662.1065779,724.1748543
610,5892.48,2939.9,1473.25,1232.48,691.88,774.4
611,6779.87156,3346.200167,1703.609675,1380.965805,764.0116764,844.6055046
612,7607.845,3741.035,1948.3,1509.25,843.805,903.265
613,8024.704508,3898.797997,2149.8798,1582.21202,887.6961603,930.3322204
614,7400.330551,3731.853088,2133.185309,1583.881469,901.0517529,948.6961603
615,6265.06422,3239.616347,1848.418682,1467.778148,841.5646372,937.6030025
616,5254.560935,2800.200334,1517.385643,1284.100167,771.5959933,869.409015
617,4507.394495,2479.326105,1294.106756,1144.517098,725.5763136,785.4045038
618,4065.736227,2285.75626,1187.871452,1076.101836,704.4407346,724.2170284
619,3881.256047,2185.786489,1113.919933,1032.793995,690.675563,699.9466222
620,3712.782319,2065.686405,1068.882402,979.4161802,695.6797331,669.9216013
621,3833.368421,2090.842105,1086.330827,968.1804511,661.593985,660.1804511
622,4073.564274,2108.63606,1068.559265,983.2721202,685.3105175,654.2988314
623,4349.14787,2121.231412,1053.096074,967.786132,667.1311612,661.9431913
624,4568.477462,2136.891486,1050.277129,951.5058431,629.7629382,667.1085142
625,4623.959866,2143.745819,1041.849498,989.0234114,655.4648829,649.5117057
626,4349.712375,2073.511706,1013.421405,982.3344482,665.4983278,646.1672241
627,3961.709516,2025.592654,1021.51586,945.5225376,650.1402337,650.7579299
628,3803.638796,1997.652174,990.0468227,936,659.8327759,653.2575251
629,3737.343358,1979.639098,987.6507937,949.9348371,665.2130326,655.8579783
630,3677.986622,1982.607023,1021.807692,956.3946488,646.9916388,647.7943144
631,3626.085213,2006.825397,1054.817043,936.9958229,616.3575606,627.8128655
632,3651.14787,1975.079365,1059.829574,955.3751044,643.091061,651.2046784
633,3684.334728,2007.951464,1061.616736,965.7004184,635.916318,648.7665272
634,3621.029289,2032.774895,1059.419247,993.8075314,658.5171548,645.4192469
635,3604.153846,2026.588629,1073.411371,994.5150502,658.5150502,644
636,3622.276151,2039.891213,1100.811715,986.3598326,650.3598326,659.2635983
637,3602.884615,2095.956522,1125.856187,997.5250836,659.3595318,688.9063545
638,3564.423077,2052.478261,1135.889632,984.1471572,634.2759197,672.1839465
639,3522.58459,2012.241206,1109.494137,962.4639866,653.879397,690.2227806
640,3430.105528,1974.703518,1068.045226,954.0050251,642.0201005,670.0301508
641,3322.673913,1927.839465,1042.964883,950.9949833,639.0250836,664.0301003
642,3238.989103,1914.331936,1035.321039,949.3210394,643.3210394,673.394803
643,3183.534338,1938.636516,1026.187605,948.7102178,646.6164154,673.6080402
644,3098.632636,1885.879498,989.9096234,951.6987448,667.2769874,644.3313808
645,3133.779079,1879.184937,984.8887029,934.9623431,627.1096234,662.7414226
646,3084.8114,1835.228835,993.658005,911.3042749,622.75943,659.101425
647,3015.678392,1832.884422,1008.552764,932.6030151,638.7738693,663.3869347
648,2976.73093,1835.574183,1010.690696,953.4216262,644.6906957,655.3813915
649,2985.740151,1813.592624,1000.851635,940.3704946,633.2221291,632.8516345
650,3015.916107,1813.426174,1009.818792,933.9161074,636.6577181,644.4194631
651,3014.238255,1841.949664,966.1946309,932.238255,609.8120805,652.8087248
652,3090.170854,1854.623116,1007.427136,962.1809045,610.3115578,629.5678392
653,3048.697987,1862.456376,997.033557,918.295302,607.5436242,633.3691275
654,2970.61745,1856.496644,987.4630872,893.0067114,612.7114094,640.0402685
655,2972.73596,1844.816429,1008.93881,928.1022632,622.2447611,641.0410729
656,3086,1856.775819,1013.753149,950.1914358,614.0906801,662.8312343
657,3086,1888.68178,1033.904282,975.3803526,661.1099916,649.3971453
658,3131.100671,1953.637584,1031.489933,999.0469799,650.966443,651.0067114
659,3166.097397,1926.712007,1070.194794,985.9026029,635.3602015,670.9151973
660,3154.177852,1912.075503,1105.746644,962.5318792,637.4681208,684
661,3132.937028,1928.453401,1100.906801,952.1561713,644.6095718,674.2972292
662,3171.932773,1908.436975,1057.159664,961.0588235,632.6218487,646.4705882
663,3202.184874,1911.798319,1035.310924,984.5882353,652.789916,634.7058824
664,3293.974811,1915.157011,1035.578505,959.1654072,655.5785055,624.5289673
665,3329.319899,1933.608732,1028.453401,943.1956339,635.8757347,647.1553317
666,3371.636975,1943.062185,1017.435294,928.6218487,628.6890756,647.9327731
667,3464.571429,1943.236975,1023.606723,933.4621849,625.9596639,634.4739496
668,3582,1931.341176,1045.623529,963.2134454,614.5815126,637.9058824
669,3582,1848.988235,998.5647059,936.3226891,651.5563025,626.1411765
670,3613.576114,1897.857023,1006.309504,926.0285955,617.1000841,616.0285955
671,3579.748111,1925.442485,1028.125945,928.0251889,638.1763224,622.0503778
672,3522.159798,1913.545837,1018.568545,936.1362489,654.0454163,643.3860387
673,3416.930193,1858.055509,1008.457527,948.3431455,639.7897393,660
674,3258.636364,1797.03367,1022.451178,949.5454545,613.4848485,659.6127946
675,3124.326325,1818.918419,1014.587048,905.8587048,626.7283431,656.5870479
676,3036.857864,1840.785534,980.9453322,902.4945332,596.450799,622.9453322
677,3001.023569,1806.6633,1000.412458,956.5690236,625.0286195,625.1801347
678,2933.882353,1798.705882,988.7647059,940,624.5882353,640.2941176
679,2880.80303,1785.607744,990.3922559,904.4023569,620.3973064,643.6026936
680,2871.449495,1756.550505,1017.03367,898.4158249,620.3367003,622.8872054
681,2873.16428,1753.000842,1012.165122,907.8348778,592.168492,590.6689132
682,2844.52064,1763.110362,993.6310025,926.3689975,614.0724516,617.6276327
683,2806.686869,1773.212121,1005.818182,901.8989899,631.3535354,630.7474747
684,2754.52401,1732.084246,980.7228307,917.1777591,605.5029486,613.2620051
685,2756.953665,1719.381634,971.0480202,942.8576243,600.4768324,611.7624263
686,2790.820556,1741.538332,980.230834,950.1027801,619.769166,630.7177759
687,2788.274874,1750.549747,972.4266442,929.6779089,627.5733558,635.4030354
688,2789.961214,1753.922428,950.5042159,890.8920742,649.4957841,594.93086
689,2773.538332,1755.646167,968.1078349,949.2620051,610.4919966,620.3386689
690,2751.364785,1736.033698,964.0134794,908.7565291,599.3378265,633.9865206
691,2776.573356,1704.645868,961.0168634,901.3204047,618.3372681,619.6964587
692,2787.49747,1696.657673,966.9224283,917.1871838,630.9679595,624.5025295
693,2739.37774,1721.947723,977.5581788,910.0522766,619.1686341,659.767285
694,2718,1730.683544,983.0126582,903.0632911,624,633.164557
695,2851.333333,1745.873418,961.07173,926.6919831,624,614.5991561
696,2856.947723,1774.104553,989.9055649,943.0522766,616.7487352,636.6543002
697,2797.397468,1772.624473,1006.550211,953.6877637,618.550211,642.5873418
698,2778.283544,1794.536709,1003.397468,946.4455696,625.3012658,640.8253165
699,2819.748523,1832.356118,1002.722363,940.7746835,623.843038,643.5392405
700,2846.793919,1817.608108,1023.376689,970.1908784,604.9949324,646.1908784
701,2836.658784,1831.121622,984.5253378,954.9881757,596.5489865,630.9881757
702,2757.097046,1854.092827,1010.405063,942.9535865,603.8902954,636.3122363
703,2820.881757,1849.864865,1020.533784,971.6722973,627.5371622,655.7364865
704,2879.560811,1845.912162,1000.010135,977.5709459,643.8243243,652.6148649
705,2877.094595,1820.898649,976,954.3209459,639.6114865,641.8716216
706,2853.01268,1768.016906,980.0169062,934.6694844,626.0169062,649.6652578
707,2868.076014,1788.557432,999.6706081,937.8733108,645.3665541,648.0506757
708,2873.143581,1825.719595,977.7111486,929.4273649,603.1368243,651.4290541
709,2847.306847,1806.71175,989.4539307,957.5029586,626.9078614,640.7607777
710,2821.746193,1775.167513,985.035533,938.2030457,632.3248731,644.7715736
711,2848.60355,1769.029586,972.8486898,923.8174134,635.4539307,645.6973795
712,2885.034658,1774.995773,981.8748943,940.5646661,647.6077768,644.1335587
713,2813.692047,1739.153976,1023.969543,936.8460237,638.1387479,670.1692047
714,2830.612521,1730.693739,1003.664975,945.3062606,619.5262267,671.8612521
715,2811.807107,1754.852792,991.1269036,955.319797,613.3401015,647.1472081
716,2806,1774.442942,984.2671175,956.7557058,616.9771767,627.5570583
717,2809.742809,1761.414552,993.2284264,933.5431472,614.3857868,630.2927242
718,2799.549534,1746.795936,1005.371719,916.7959356,610.5131245,638.2303133
719,2771.21489,1768.571912,1003.357022,934.714044,618.250423,630.642978
720,2788.027119,1781.823729,999.9864407,928.1491525,630.2305085,633.9186441
721,2791.416949,1759.789831,998.2915254,946.7932203,659.0440678,623.7491525
722,2786.391194,1778.435224,1026.04403,971.0330229,596.6943268,657.0550381
723,2814.679086,1782.521592,1020.469094,973.4259102,598.6790855,641.3209145
724,2826.584251,1759.84928,1021.783235,964.0541914,624.7891617,623.8916173
725,2827.23624,1736.826418,1044.552075,955.104149,628.895851,640.3437765
726,2890.122034,1752.176271,1039.471186,947.0576271,636.7661017,654.1762712
727,2852.833898,1753.871186,1034.386441,957.2271186,624.9016949,655.8711864
728,2845.29771,1779.07888,1021.46056,929.7862595,636.5394402,645.0279898
729,2807.412362,1767.07536,1001.598645,935.8780694,633.6917866,633.1685013
730,2812.766102,1734.013559,1003.471186,942.0881356,627.1322034,623.220339
731,2810.081425,1725.633588,1017.954198,934.7888041,629.2111959,619.9541985
732,2766.237288,1755.915254,1018.872881,926.0847458,640,625.0423729
733,2871.193548,1746.382003,1004.297114,935.9151104,639.533107,629.6604414
734,2838.935484,1761.662139,1016.181664,932.5195246,620.8573854,616.0780985
735,2799.516539,1766.873622,999.3214589,927.6895674,636.6785411,636.9889737
736,2802.997455,1801.994911,999.9321459,913.5351993,663.2637829,638.0678541
737,2822.636132,1812.239186,991.8982188,924.7379135,653.1145038,636.1475827
738,2821.991504,1784.205607,971.473237,943.4647409,617.473237,639.3661852
739,2796.256149,1772.512299,971.8049194,916.2561493,617.5793045,636.9635284
740,2813.219678,1806.439355,985.3757422,933.2196777,629.4537744,674.2832909
741,2796.183362,1778.845501,984.3803056,909.704584,646.196944,648.4651952
742,2817.032258,1819.429542,1014.302207,915.8573854,648.6825127,644.6349745
743,2813.741716,1805.386576,1037.112999,947.4035684,635.8062872,653.1129992
744,2810.876805,1783.738318,1027.546304,959.8385726,635.4460493,661.4307562
745,2827.371817,1802.471986,1002.142615,942.9711375,654.7572156,660.6859083
746,2805.255102,1766.44898,1016.877551,962.5612245,651.122449,648.5612245
747,2854.57483,1773.251701,999.8707483,971.0646259,668.1292517,657.0646259
748,2829.753611,1784.586236,1017.660153,935.7043331,656.3891249,638.3398471
749,2807.884452,1802.538658,998.5573492,931.2693288,644.7306712,655.0195412
750,2819.126593,1772.836024,1009.323704,931.4460493,649.1079014,649.0518267
751,2834.05617,1749.220426,1038.333617,936.9991489,661.2221277,635.6102128
752,2831.320306,1800.124044,1029.062022,959.4987256,662.1240442,663.8759558
753,2914.083404,1790.464681,1024.178723,945.9642553,651.8331915,673.7259574
754,2925.998298,1856.84766,1049.710638,940.8578723,628.0034043,634.5770213
755,2946.394558,1859.510204,1014.380952,949.9047619,636.7346939,647.8095238
756,2987.469388,1829.22449,1013.619048,948.4217687,639.7687075,659.3469388
757,3029.536627,1847.250426,1040.71891,950.5417376,660.0783646,667.7240204
758,3083.22449,1910.244898,1064.081633,963.6428571,688.877551,677.0408163
759,3179.523404,1939.506383,1073.982979,977.0978723,680.8851064,675.5744681
760,3237.395745,2028.017021,1104.621277,1000.92766,687.693617,641.5319149
761,3314.83816,2084.061329,1106,993.8654174,692.8807496,688.8074957
762,3466.265532,2205.00766,1155.186383,1038.52766,701.9761702,705.3174468
763,3645.590793,2268.265985,1190.332481,1072.332481,692.5677749,719.3657289
764,3882.66383,2306.954894,1221.373617,1072.418723,693.266383,730.7370213
765,4212.936061,2396.071611,1272.516624,1085.473146,720.8388747,737.7186701
766,4607.105622,2522.696763,1328.054514,1188.986371,735.3935264,759.3032368
767,4949.524702,2507.364566,1375.754685,1177.061329,704.7291312,774.6354344
768,5423.860307,2625.500852,1389.311755,1200.831346,726.8313458,789.967632
769,5887.514066,2734.139812,1404.56607,1200.460358,720.1773231,791.486786
770,6262.941176,2806.849105,1399.498721,1182.537084,737.0025575,792.8849105
771,6520.056314,2831.327645,1371.988055,1170.668942,746.6518771,781.3208191
772,6669.908007,2826.207836,1337.284497,1162.568995,713.1192504,746.0306644
773,6738.784983,2860.617747,1307.308874,1105.766212,718.4607509,719.4624573
774,6534.006826,2829.901024,1291.950512,1145.015358,728.6996587,707.5170648
775,6166.84471,2775.348123,1295.959044,1139.571672,710.6331058,698.5511945
776,5789.21843,2691.010239,1264.505119,1127.62628,709.9812287,697.1962457
777,5430.745734,2607.182594,1258.249147,1106.653584,721.221843,724.1791809
778,5073.363481,2538.677474,1290.1843,1088,720.2525597,748.6894198
779,4726.537543,2474.530717,1312.948805,1091.472696,700.2098976,725.0546075
780,4511.777778,2390.977778,1285.177778,1109.622222,711.7111111,688.2222222
781,4186.991453,2312.345299,1221.929915,1080.562393,689.4888889,705.3162393
782,3969.12628,2216.56314,1155.895904,1052.982935,665.8600683,689.2986348
783,3669.064048,2118.676345,1131.707942,1030.247652,678.6285226,683.146029
784,3451.264957,2059.74359,1133.418803,1008.034188,681.1794872,692.5470085
785,3352.855679,2034.727583,1122.218617,984.6729291,673.5815542,693.2912041
786,3237.4,2002.194872,1080.369231,966.8153846,686.5846154,665.7282051
787,3170.733333,1978.263248,1070.112821,971.9435897,614.7897436,664.0188034
788,3048.380871,1893.542272,1066.621691,968.6216909,634.2698548,650.4867635
789,2985.414885,1858.407186,1042.208725,966.6005133,640.7989735,632.6056459
790,2930.312553,1847.783091,1023.132365,954.9154569,637.5661827,650.3859949
791,2877.919589,1815.74166,1025.813516,945.182207,634,648.7373824
792,2851.28657,1766.71343,1038.414029,943.471343,636.6432849,621.7005988
793,2854.991453,1748.649573,1036.153846,941.7606838,640.6495726,633.9145299
794,2776.358974,1724.717949,1051.538462,940.0512821,616.7179487,647.5897436
795,2780.643836,1753.89726,1023.763699,938.3390411,624.3047945,623.0856164
796,2772.39521,1725.697177,1027.60479,925.6509837,638.3490163,626.2326775
797,2719.266039,1722.995723,1033.082977,931.9127459,642.9170231,638.6638152
798,2709.780822,1733.205479,1018.109589,950.739726,636.4383562,649.9726027
799,2746.849315,1713.753425,1004.643836,955.890411,628.5068493,656.5068493
800,2717.065868,1667.664671,1033.591104,934.1899059,628.6860565,656.2480753
801,2741.017964,1727.54491,1014.7716,951.2985458,618.4208725,642.5611634
802,2746.930591,1688.91174,1025.504713,956.9305913,619.6435304,656.7917738
803,2761.573265,1675.928021,1038.858612,943.0694087,630.8586118,657.285347
804,2727.36698,1676.13858,1033.3071,940.27716,628.5149701,659.20787
805,2701.377892,1691.285347,1025.562982,944.781491,616.529563,656.529563
806,2691.71012,1712,1021.555746,946,615.4356775,649.9828473
807,2626.84589,1714.106164,1004.106164,943.4726027,636.1044521,652.630137
808,2698.763699,1731.229452,1021.229452,922.9246575,620.6934932,625.2328767
809,2649.581475,1717.25729,1035.104631,915.4476844,626.5523156,599.4288165
810,2642.056555,1688.308483,1025.830334,942.3958869,638.8174807,629.1568123
811,2657.86964,1690.936535,1006.13036,948.5317324,627.9965695,650.2675815
812,2654.37018,1686.025707,1002.596401,945.125964,624.159383,648.529563
813,2632.480687,1651.550215,1017.984549,955.4575107,637.5193133,648.4343348
814,2647.444254,1638.168096,1023.574614,963.2795883,632.5523156,669.7461407
815,2707.478559,1687.910806,1020.144082,892.9536878,653.135506,635.4408233
816,2667.239485,1645.59485,1000.264378,909.7356223,635.9090129,653.7356223
817,2625.35506,1663.204117,1001.440823,931.6826758,638.8010292,653.9193825
818,2647.67382,1679.229185,1002.923605,930.3124464,630.1596567,645.5416309
819,2666.516738,1695.483262,1013.103863,929.9313305,618.4137339,641.5862661
820,2620.994845,1693.546392,1026.427835,942,620.5927835,645.0206186
821,2552.338197,1630.283262,1016.228326,945.1965665,630.8034335,647.7716738
822,2584.956223,1647.450644,1017.945064,969.2309013,606.7690987,646.0549356
823,2610.927039,1649.661803,989.7493562,996.5888412,659.1776824,631.0437768
824,2577.367698,1651.379725,964.6838488,984.0635739,632.7474227,632.1391753
825,2587.448454,1653.097938,996.6237113,966.1185567,620.3917526,635.0979381
826,2574.875322,1639.296647,1027.549441,951.4651763,621.5494411,634.3662941
827,2543.835052,1631.938144,1013.814433,945.2164948,625.5051546,636.2886598
828,2588.582975,1673.563199,987.2725709,952.4729149,644.2184007,647.2364574
829,2524.954428,1697.638865,995.8710232,942.1547721,632.1805675,642.0773861
830,2495.203783,1653.958727,1001.081685,923.3671539,630.3061049,653.8572657
831,2571.917526,1633.28866,1014.71134,922.8247423,615.8762887,641.8762887
832,2591.289768,1630.263113,1006.421324,961.3413586,623.5786758,656.3680138
833,2561.272571,1650.727429,1001.107481,970.4213242,628.8925193,654.1238177
834,2540,1668.571429,1000.571429,945.7142857,628.8571429,616.8571429
835,2541.222031,1650.292599,983.1703959,945.3184165,644.2444062,592.1927711
836,2489.752151,1651.931153,990.2203098,918.0963855,633.9724613,639.848537
837,2458.771084,1643.325301,1017.759036,930.1445783,630.5301205,620.9156627
838,2468.561102,1625.982788,984.141136,945.1049914,618.3511188,629.6488812
839,2502.27907,1590.542636,998.2790698,937.0387597,612.8217054,621.0387597
840,2545.404475,1565.499139,999.9965577,934.3012048,620.1015491,611.0998279
841,2558.453058,1569.328165,969.91559,941.3781223,628.1343669,616.8406546
842,2524.344531,1588.966408,957.8570198,936.2101637,622.2773471,628.2101637
843,2525.328165,1583.865633,985.126615,918,614.8062016,610.6046512
844,2508.101637,1580.420327,962.7321275,918,635.4780362,626.1085271
845,2507.512489,1623.862188,999.3247201,925.5624462,595.6503015,626.4875108
846,2543.85,1619.456897,1010.763793,921.8189655,596.8344828,626
847,2556.404823,1616.635659,1014.797588,935.2713178,612.7166236,619.2833764
848,2550.77931,1628.731034,1007.710345,947.1724138,613.8551724,598.3448276
849,2572.206897,1609.586207,986.0344828,939.2896552,604.0344828,584.6137931
850,2616.462069,1520.158621,995.9655172,957.3793103,611.0827586,631.5103448
851,2569.910345,1601.193103,1021.827586,922.8965517,599.0137931,598.7517241
852,2575.484038,1598.515962,1027.161346,938.9680759,620.1294219,618.1294219
853,2551.896552,1584.253448,1020.168966,930.9482759,609.0327586,620.0844828
854,2550.362381,1580.060397,1001.577222,931.2113891,629.875755,635.5133736
855,2551.418464,1581.244176,998.5815358,938.755824,639.1044003,648.2208801
856,2547.962036,1583.370147,1005.88956,923.6307161,613.2959448,642
857,2589.100949,1597.313201,975.4495255,878.8334771,626.0655738,641.5858499
858,2564.942192,1624.92321,987.5289042,935.7791199,593.2786885,638.1345988
859,2529.145078,1644.25734,1026.174439,938,620.2158895,633.0207254
860,2541.399482,1585.644521,1007.672131,949.0854185,612.1432269,648.6281277
861,2508.846287,1581.357513,988.2141623,952.8877375,614.8981002,645.9896373
862,2474.321244,1611.751295,985.357513,951.1606218,628.7150259,624.5699482
863,2462.936097,1603.074266,992.8324698,951.6994819,628.9360967,612.2314335
864,2438.824546,1549.40363,996.7675022,953.6490925,605.7061366,626.2368194
865,2431.842832,1603.618307,978.1122625,939.7305699,604.224525,616.1571675
866,2419.753022,1574.25734,986.7478411,919.0051813,621.4956822,628.2469775
867,2423.916955,1549.290657,1002.792388,921.916955,641.7508651,634.4377163
868,2432.041487,1564.957649,976.5842697,928.8331893,627.4589455,625.1253241
869,2458.485739,1587.495246,980.3595506,930.1261884,623.3690579,626.4321521
870,2451.361592,1586.67474,1011.33045,929.3321799,632.6678201,631.3373702
871,2396.687986,1575.521175,1019.583405,930.0207433,624.4580812,622
872,2442.366782,1603.633218,1023.882353,923.3702422,604.1176471,621.7508651
873,2475.238754,1570.761246,994.4705882,942.4013841,633.5294118,618.2906574
874,2451.082109,1623.419188,993.5834054,907.5816768,626.4995678,629.0838375
875,2484.778163,1641.946274,1005.838821,930.8856153,625.3154246,637.2616984
876,2484.019031,1622.019031,1010.953287,950.0934256,624.9532872,653.6072664
877,2504.394464,1598.892734,1013.107266,944.2318339,628.6608997,652.017301
878,2547.705628,1595.014719,1008.867532,926.4190476,630.4190476,630
879,2492.536332,1605.16263,984.3875433,914.2975779,616.6262976,629.5224913
880,2525.408304,1657.065744,1001.688581,945.4394464,635.6574394,626.0622837
881,2543.033825,1617.11882,1036.06765,939.1864701,630.8898526,648.1439722
882,2573.274459,1597.080519,1042,966.7099567,638.612987,626.161039
883,2579.331602,1596.668398,1022.159307,959.3264069,618.6580087,637.0077922
884,2568.81039,1635.948052,1012.493506,942.4051948,610.0883117,645.7090909
885,2554.317433,1670.529055,1021.156982,949.9965308,619.3686036,642.4197745
886,2546.388215,1648.537262,1030.194107,975.2686308,624.9480069,643.2235702
887,2566.592721,1643.679376,1039.407279,972.4939341,654.5181976,605.1854419
888,2576.991334,1673.142114,1029.008666,981.1594454,628.5216638,625.982669
889,2545.135182,1677.564991,1029.564991,980.4350087,633.8249567,656.169844
890,2502.190972,1659.795139,1019.597222,961.7951389,639.9010417,637.9930556
891,2493.311958,1663.450607,1032.623917,963.3812825,630.6187175,639.5199307
892,2507.379011,1658.326106,1042.315698,979.3790113,618.4631396,642.4735473
893,2504.923611,1638.055556,1025.972222,978.9375,619.5243056,627.5243056
894,2471.042498,1657.69124,1015.436253,948.6487424,632.633131,636.5637467
895,2464.104076,1626.468343,1025.843886,924.3642671,651.7137901,626.1561145
896,2494.754553,1629.417173,995.2454467,954.7545533,622.954033,624.2914137
897,2523.13119,1628.554301,1021.805387,964.3370982,629.5655951,632.6741964
898,2491.836947,1639.812663,1037.543799,960.0936687,624.5498699,651.3564614
899,2488.75,1646.166667,1027.166667,956.9166667,605.1666667,661.0833333
900,2502.319722,1635.506516,1019.840139,959.9600348,600.4535187,643.6663771
901,2463.75,1620.734375,1032.875,965.171875,623.953125,621.328125
902,2440.410078,1631.238923,1019.746308,969.1120765,631.6194613,665.4630756
903,2473.424848,1620.813206,1016.271069,956.9487402,626.406603,630.7106864
904,2485.612511,1653.643788,1035.225022,947.9895743,648.429192,618.3874891
905,2470.58384,1644.58384,1015.885317,968.7749783,658.0191138,625.3779322
906,2481.408696,1652.173913,1014.782609,973.5304348,639.5130435,634.3130435
907,2502.083406,1646.399652,1024.816681,969.6333623,622,652.7002606
908,2481.393571,1614.119896,1018.794092,969.7827976,623.1086012,663.4682884
909,2426.913838,1608.093995,1007.018277,960.4908616,624.8302872,637.462141
910,2512.943527,1631.405734,1047.702867,940.0990443,618.6602954,645.5047785
911,2457.339705,1600.128584,1032.064292,945.3119027,653.4126846,619.4404865
912,2490.793734,1603.554395,1033.021758,964.1305483,618.7171453,641.6849434
913,2492.746087,1606,1020.245217,951.2434783,636.0104348,639.9965217
914,2475.095819,1595.095819,1010.017422,948.9216028,636.1567944,641.9303136
915,2461.071304,1578.142609,995.5530435,953.6069565,628.9826087,645.6069565
916,2453.639373,1587.357143,974,953.554007,645.1672474,640.3606272
917,2450.278261,1638.448696,978.92,977.3582609,634.2886957,650.3530435
918,2485.06087,1544.535652,1018.92,972.1408696,620.3756522,669.4834783
919,2486,1611.5,1011.52439,946.5731707,614.9146341,641.1829268
920,2513.284595,1644.104439,991.3315927,966.4125326,632.6684073,634.5639687
921,2524,1627.246731,1002.859634,955.9616391,656.5021796,622.2127289
922,2542.416014,1618.287206,1022.445605,942,651.4255875,620.4456049
923,2574.601569,1635.951177,1041.264167,953.9267655,629.3496077,622.0366173
924,2593.97215,1643.888599,1051.427328,971.510879,624.8111401,617.7058312
925,2584.681779,1611.707062,1005.368788,948.6364429,628.2929381,647.5605929
926,2568.988666,1608.219704,1045.473409,980.0226678,631.7802964,642.3295554
927,2566.367596,1666.766551,1025.146341,942.8222997,630.3675958,609.3519164
928,2543.968586,1686.884817,1013.115183,946.3926702,639.6387435,618.5235602
929,2525.038328,1713.52439,1033.52439,969.9233449,645.1202091,624.8797909
930,2531.82199,1735.455497,1046.816754,978.8167539,643.408377,636.9581152
931,2551.21815,1732.082024,1041.827225,969.5636998,640.609075,652.1727749
932,2542.67306,1714.353967,1049.185702,968.9555362,638.8142982,648.7079337
933,2489.706806,1711.406632,1063.21815,990.9249564,624.6841187,651.9022688
934,2484.471204,1629.382199,1049.256545,971.7277487,636.9005236,650.1570681
935,2479.235602,1668.055846,1035.294939,987.469459,647.5287958,659.5287958
936,2471.333333,1637.333333,1046.666667,981.3333333,652.6666667,670
937,2456.125764,1609.523144,1046.443668,974.920524,663.7152838,656.7283843
938,2476.542757,1591.617801,1036.69808,968.2216405,659.617801,656.8586387
939,2494.296943,1577.427074,1038.854148,958.8576419,649.9965066,675.7152838
940,2444.636364,1588.227273,1050.272727,957.5909091,665.8636364,666.5
941,2522.530541,1600,1022.122164,965.8673647,644.5968586,647.4031414
942,2536.492147,1600,1077.968586,962.3769634,660.3036649,631.6963351
943,2483.41958,1590.643357,1024.741259,963.5594406,660.4405594,650.2727273
944,2452.307692,1576.230769,1036.769231,973.1538462,648.2307692,631.1538462
945,2395.468996,1543.624454,1038.284716,971.669869,637.7799127,630.660262
946,2383.295455,1527.222028,1026,955.5681818,650.8513986,629.1608392
947,2418.986014,1548.463287,1028.202797,941.6520979,664.986014,622.1153846
948,2391.195804,1574.206294,1031.608392,948.9895105,638.3916084,651.0104895
949,2397.76378,1564.047244,1017.858268,965.9055118,652.1889764,634.0472441
950,2389.014873,1565.797025,1012.608924,962.4059493,659.1881015,635.7970254
951,2380.265967,1533.51706,1025.92126,952.7191601,642.9851269,674.6701662
952,2412.946725,1555.063755,1039.060262,946.1170306,638,645.8759825
953,2419.474606,1564.69352,1031.996497,954.4378284,643.2189142,627.1313485
954,2398.467192,1552.439195,1011.864392,958.4391951,651.9720035,632.3832021
955,2383.455342,1541.276708,1009.437828,949.4553415,656.910683,636
956,2377.564304,1529.564304,1029.650044,949.4785652,654,639.2528434
957,2352.227671,1504.683012,971.5481611,957.7723292,653.2714536,658.1821366
958,2360.984238,1530.952715,1031.09282,949.0157618,625.2504378,665.1873905
959,2349.614711,1588.185639,997.7478109,955.7408056,639.0297723,656.7110333
960,2360.306748,1540.269939,993.803681,954.0981595,655.7055215,629.2883436
961,2389.050788,1541.78634,1014.84063,947.7898424,646.2119089,620.2101576
962,2399.961471,1582.038529,1027.588441,956.8616462,624.765324,643.2924694
963,2394.667835,1576.774759,1015.109553,967.109553,622.334794,665.3321648
964,2414.159509,1539.09553,992.9255039,941.5319895,644.3085013,647.6914987
965,2426.306748,1576.834356,999.3496933,928.1226994,645.5705521,645.5705521
966,2435.07099,1543.530237,1037.912358,931.6283961,633.3006135,633.3006135
967,2412.473684,1513.336842,1026.315789,930.4315789,635.1368421,644.5473684
968,2395.426819,1500.713409,1006.140228,951.1463628,637.3216477,641.3917616
969,2441.575811,1509.819457,1018.415425,942.659071,635.8510079,631.5530237
970,2442.940351,1513.375439,1027.719298,923.5157895,629.8596491,635.1087719
971,2376.175439,1512.154386,1013.670175,935.7263158,624,641.0105263
972,2356.273684,1535.368421,1000.926316,969.2842105,629.0526316,622.6526316
973,2329.278314,1550.812994,968.191396,945.7260755,652.4477612,617.1870061
974,2353.861282,1527.985953,1010.333626,940.4582968,622.5970149,640.0140474
975,2343.174715,1529.206321,1017.206321,893.5083406,655.2695347,622.762072
976,2349.505263,1557.157895,1018,915.9473684,644.9894737,639.7263158
977,2377.378402,1536.602283,1005.75417,940.9060579,637.1132572,654.453029
978,2381.210896,1525.659051,999.4797891,938.43058,630.1704745,663.2196837
979,2363.880597,1538.477612,1009.641791,927.2537313,630.6567164,658.7164179
980,2356.526316,1524.294737,1014.733333,930,649.0280702,632.8526316
981,2307.45167,1533.040422,984.8224956,930.685413,627.314587,627.5887522
982,2300.421793,1520.738137,995.3673111,939.4727592,618.5272408,622.3163445
983,2306.608084,1477.047452,986.0878735,933.3919156,608.0878735,650.0843585
984,2315.047452,1510.28471,988.228471,920.7240773,604.5905097,637.6766257
985,2325.007916,1532.671944,981.8240985,923.0079156,607.5039578,644.0158311
986,2325.369069,1544.335677,989.8927944,936.3356766,622.0404218,648.4428822
987,2309.736148,1538.94635,1001.894459,941.2102023,631.8944591,629.6833773
988,2290.443272,1509.113456,997.5461741,929.3403694,630.2058047,609.9894459
989,2291.393673,1509.435852,1010.202109,919.3936731,648.3620387,625.6168717
990,2286.121265,1539.31283,1011.959578,914.1212654,616.7275923,639.6766257
991,2282.559859,1521.079225,984.4788732,941.5211268,628.040493,626.2394366
992,2307.148637,1513.562005,982.9586631,925.289358,616.6860158,613.644679
993,2288.732394,1500.84507,971.6056338,929.1549296,592.1690141,611.2394366
994,2316.960422,1521.975374,977.9876869,930.005277,593.9876869,615.996482
995,2360.482394,1557.588028,987.4471831,922.4823944,608.7588028,616.9647887
996,2342.93838,1558.054577,987.790493,925.193662,610,610.4419014
997,2298.037037,1528.206349,1009.15873,935.5132275,608.3174603,609.3650794
998,2286.484155,1553.691901,1004.176056,908.7922535,598.8362676,629.6478873
999,2305.850352,1541.367958,1011.21831,940.4823944,632.2869718,615.5633803
1000,2342.342406,1591.513608,980.7796313,945.5610184,625.0728709,624.9271291
1001,2346.690265,1603.345133,1007.840708,935.380531,622,631.9823009
1002,2362.491228,1655.298246,1044.491228,965.8947368,644.8421053,665.5438596
1003,2374.60177,1683.00885,1070.19469,989.2035398,684.3893805,685.2035398
1004,2381.052632,1642.807018,1082.77193,975.7017544,714.4561404,672.3157895
1005,2404.884956,1609.20354,1073.309735,963.7699115,710.3362832,666.9734513
1006,2404.210526,1630.596491,1041.052632,956.3859649,664.2105263,676.3508772
1007,2456.842105,1613.052632,1004.210526,986.2105263,616.8421053,630.7368421
1008,2451.681416,1618.654867,997.0088496,944.7433628,617.3274336,637.9823009
1009,2441.39823,1642.938053,984.5309735,941.7345133,587.8938053,644.300885
1010,2447.54386,1644.842105,987.1578947,936.8421053,596.2807018,636.4561404
1011,2462.60177,1619.929204,989.1327434,908.1061947,611.9115044,629.0442478
1012,2456.761062,1590.743363,991.8053097,887.8053097,616.9026549,620.7433628
1013,2447.684211,1574.070175,998.0701754,902.4210526,602.8421053,598.6666667
1014,2500.017699,1563.486726,987.7345133,914.7610619,551.6814159,575.699115
1015,2486.495575,1573.893805,999.7876106,906.0707965,605.8584071,616.0707965
1016,2536.053097,1563.274336,978.5486726,913.1504425,591.699115,623.1504425
1017,2484.371681,1547.982301,1005.59292,878.1769912,594.6725664,591.2920354
1018,2515.368421,1580.842105,973.2105263,882.4736842,605.2105263,592.5263158
1019,2528.123894,1560.053097,983.3097345,888.920354,600.2831858,595.840708
1020,2484.017699,1524.300885,985.3628319,893.9469027,592,588.9026549
1021,2455.345133,1531.292035,951.380531,900.1415929,579.6106195,581.380531
1022,2498.283186,1543.823009,957.7876106,890.159292,559.3982301,583.1150442
1023,2507.631579,1513.315789,987.3157895,867.1052632,589.5263158,593.7894737
1024,2414.649123,1550.157895,957.4912281,879.3859649,584.2631579,569.2280702
1025,2458.761062,1558.725664,967.7699115,893.4513274,599.1327434,571.3628319
1026,2462.19469,1578.867257,980.159292,913.4159292,606.3539823,589.4159292
1027,2475.876106,1579.893805,968.1238938,924.8849558,581.1327434,604.5486726
1028,2454.283186,1543.292035,964.9380531,903.2212389,585.8053097,606.0353982
1029,2438.743363,1516.849558,985.699115,883.3274336,601.1504425,602
1030,2461.221239,1534.371681,1004.283186,889.3451327,592.6548673,598.8141593
1031,2441.079646,1545.681416,994.6017699,886.5132743,596.0884956,593.3097345
1032,2405.469027,1511.345133,997.2212389,910.5840708,574.2831858,611.6460177
1033,2492.19469,1544.973451,977.7522124,875.1858407,581.3628319,602.7964602
1034,2451.681416,1491.628319,972.7787611,883.2743363,586.8318584,598.7787611
1035,2395.823009,1478,977.5221239,890.1415929,589.380531,595.2389381
1036,2390.955752,1483.752212,967.3451327,896.6017699,596.9026549,583.6460177
1037,2357.823009,1472.353982,953.3982301,892.6371681,591.8761062,594.4070796
1038,2331.539823,1458.141593,949.380531,879.1681416,580.6902655,599.4336283
1039,2364.814159,1474.743363,957.5221239,870.920354,582.920354,575.8230088
1040,2320.212389,1503.769912,973.2389381,874.6902655,586.460177,598.3185841
1041,2368,1502,952,880,590,570
1042,2337.642857,1489.5,962.7142857,899.6428571,582.8571429,573.5714286
1043,2357.362832,1517.59292,948.4247788,902,582,575.5575221
1044,2354.707965,1531.309735,965.2389381,894.0353982,570.0530973,597.2389381
1045,2366.460177,1547.168142,972.7079646,909.7522124,572.7787611,593.7345133
1046,2388.672566,1518.973451,970,907.7876106,573.9292035,588.9380531
1047,2388.428571,1480.214286,970.6428571,885.9285714,571.7857143,590.2857143
1048,2364,1500.053097,972.8495575,887.0265487,582.7256637,575.699115
1049,2367.115044,1480.336283,972.1061947,879.699115,576.2477876,583.5575221
1050,2395.433628,1501.575221,936.7079646,913.3274336,560.3185841,597.7168142
1051,2397.734513,1517.610619,934.2654867,889.7168142,575.6106195,571.9823009
1052,2331.214286,1491.160714,956.7678571,896.625,558.2678571,577.1071429
1053,2374.60177,1507.840708,949.7876106,888.3716814,552,591.6283186
1054,2374.642857,1496.285714,936.6428571,871.2857143,571.2857143,593.7142857
1055,2382.230088,1469.752212,934.5486726,861.1504425,589.699115,598.4955752
1056,2415.415929,1472.672566,941.0973451,865.5752212,594.4778761,605.0442478
1057,2371.642857,1488.464286,947.2142857,877.6071429,599.2142857,590.4642857
1058,2362.530973,1473.115044,943.6460177,876.5309735,594.5840708,575.6460177
1059,2367.840708,1464.265487,940.1061947,881.840708,580.4247788,572.1061947
1060,2352.548673,1455.415929,955.4513274,880.2831858,581.7168142,602.9026549
1061,2399.5,1442,956.5,901,580.5,585.5
1062,2335.716814,1452.017699,941.9823009,892.7079646,564.7079646,579.2743363
1063,2323.714286,1464.214286,939.2678571,875.5714286,574.9642857,581.0535714
1064,2350.672566,1484.637168,949.8230088,885.4690265,570.3716814,580.3362832
1065,2351.464286,1500.714286,948.2857143,900.8928571,549.7142857,576.7857143
1066,2358.159292,1489.451327,926.3893805,880,572.7787611,577.5044248
1067,2332.553571,1509.75,928.4821429,880.1607143,574.3928571,590.7142857
1068,2316.482143,1484.75,933.8392857,881.9464286,556.5357143,576.4285714
1069,2340.25,1454.553571,920.1428571,876.8035714,569.8571429,563.875
1070,2378.60177,1465.044248,958.619469,877.5044248,575.0088496,581.5575221
1071,2399,1468.714286,950.1428571,853.5714286,563.1428571,584.1428571
1072,2389,1464.785714,957.2857143,852.8571429,563.5,568.0714286
1073,2395.539823,1481.539823,954.460177,861.4513274,561.5044248,559.3982301
1074,2407.625,1506.75,934.875,867.375,551.25,574.625
1075,2376.821429,1501.946429,942.6071429,881.8392857,555.6428571,595.125
1076,2388.176991,1497.115044,918.0884956,863.2566372,562.5840708,582.6371681
1077,2462.513274,1525.433628,955.2566372,911.0442478,567.8938053,570.2477876
1078,2418.5,1517.25,949,868.25,583.75,580.5
1079,2455,1535.964286,954.1428571,874.2857143,584.4642857,605.0357143
1080,2477.25,1590.892857,970.5357143,905.75,581.3571429,590.8571429
1081,2513.823009,1607.221239,984.5840708,890.3716814,573.4159292,581.0973451
1082,2552.25,1606.125,987.375,871.25,560.125,592.5
1083,2572.625,1628.535714,993.9107143,889.2321429,558.5892857,602.0357143
1084,2591.821429,1665.142857,1006.410714,919.1428571,566.1785714,594.4464286
1085,2623.678571,1689.535714,979.3035714,943.5357143,536.4107143,598.5535714
1086,2605.875,1685.857143,974.0892857,939.7142857,570.125,617.8392857
1087,2593.375,1671.571429,983.0178571,911.1428571,582.625,601.7678571
1088,2636.5,1725.625,990.3571429,909.5892857,588.7678571,598.4107143
1089,2637.097345,1692.300885,1008.353982,910,590,581.6460177
1090,2612.571429,1702,1006.857143,923.7142857,593.4285714,579.7142857
1091,2577.571429,1699.071429,999.0714286,922.8571429,576.5,588.6428571
1092,2544.714286,1667.285714,1006.571429,914.2857143,561.8571429,601.8571429
1093,2533.5,1659.5,1007,909,578.5,613
1094,2535.428571,1639.714286,961.1428571,872.5714286,582,602.2857143
1095,2448,1635.071429,955.8571429,888.4285714,557.5,591.2857143
1096,2448,1561.857143,952.2857143,899.1428571,545,573.4285714
1097,2467.714286,1518.214286,970.0714286,881.9285714,585.0714286,593.3571429
1098,2442,1530,972.5714286,855.1428571,575.4285714,593.7142857
1099,2450.828829,1501.243243,969.5495495,877.8558559,579.027027,585.8738739
1100,2429.392857,1490.214286,952.7321429,890.875,576.8392857,577.9285714
1101,2400.821429,1493.160714,938,880.7857143,568,574
1102,2413.303571,1492.375,938,877.1785714,564.4642857,569.875
1103,2422.25,1520.875,936.5,874.75,560.125,564.5
1104,2407.446429,1511.982143,928.3928571,853.6071429,576.2321429,582.0714286
1105,2423.517857,1467.339286,910.5357143,871.4642857,556.5892857,560.6428571
1106,2417.071429,1507.571429,913.4642857,859.875,566.3928571,551.3392857
1107,2431.315315,1475.711712,926.2522523,858,551.1531532,574.5045045
1108,2449.214286,1482.5,926.0357143,868.5714286,551.2857143,583.3214286
1109,2470.392857,1514.142857,941.7142857,868.4642857,539.6071429,571.8214286
1110,2493.607143,1532,966.7142857,856.8571429,549.4285714,593.25
1111,2520.324324,1540.900901,973.8378378,871.2792793,571.2072072,610.7747748
1112,2548.821429,1547.392857,958.1428571,910.6964286,569.7142857,571.4464286
1113,2576.053571,1522.035714,944.6607143,890.5178571,591.0535714,576
1114,2654.324324,1573.351351,937.0810811,868.2162162,571.7297297,575.4054054
1115,2665.135135,1551.72973,973.1171171,875.4234234,562.7207207,555.5855856
1116,2708.714286,1586.142857,961.2142857,859.5714286,562,567.1428571
1117,2762.285714,1644,938,890.2857143,566.2857143,591.4285714
1118,2780,1672.576577,950.8288288,894.1981982,561.8738739,597.5495495
1119,2772.875,1693.267857,974.1785714,896.1428571,567.1607143,601.0892857
1120,2803.767857,1722.464286,979.9821429,908.8214286,574.3928571,601.1785714
1121,2874.27027,1759.459459,975.1891892,914.2162162,563.0810811,592.2162162
1122,2920.571429,1800.714286,985.8571429,908.0357143,551.4285714,591.1428571
1123,2977.765766,1823.963964,1019.261261,903.7837838,590.3603604,605.0810811
1124,3035.423423,1863.603604,1031.873874,941.6216216,593.963964,615.8918919
1125,3060.75,1862.232143,1040.839286,938.4642857,594,621.3035714
1126,3074.972973,1844.756757,1048.27027,977.1891892,576.7567568,617.2972973
1127,3098.540541,1879.711712,1047.261261,959.2432432,591.1711712,629.6936937
1128,3039.517857,1887.553571,1041.357143,941.3571429,576.7857143,627.875
1129,2960.396396,1846.576577,1044.684685,929.4054054,569.5495495,624.8648649
1130,2923.5,1805.5,1050.5,942.5,576.25,613
1131,2908.432432,1786.108108,1047.459459,975.6756757,572.1621622,590.1621622
1132,2869,1750.946429,1042.267857,957.2142857,574.6071429,599.7321429
1133,2772.972973,1733.72973,1023.621622,922.3603604,558.8828829,615.0990991
1134,2729.72973,1701.297297,1018.216216,898.9369369,571.4954955,573.6576577
1135,2660.540541,1663.675676,1000.702703,901.4594595,578.9189189,568.5405405
1136,2637.857143,1641.303571,969.1607143,911.1071429,554.1964286,598.3571429
1137,2581.387387,1600.486486,952.1081081,877.1711712,559.1531532,586.954955
1138,2539.477477,1587.585586,970.3423423,882.5765766,576.0540541,573.7657658
1139,2496.756757,1583.72973,995.3513514,889.1351351,572.972973,575.6756757
1140,2487.857143,1574,984,884.7142857,557.8571429,587.1428571
1141,2519.333333,1578.036036,955.0630631,905.009009,561.5675676,593.9459459
1142,2465.225225,1590.612613,973.5495495,905.5495495,581.8558559,576.3063063
1143,2470.594595,1589.243243,959.4594595,892.2162162,570.8648649,576.4864865
1144,2447.171171,1509.963964,950.4504505,895.8198198,585.2792793,551.2612613
1145,2394.648649,1535.099099,975.6756757,882.3063063,574.018018,577.3873874
1146,2368,1552,965,869.5,573.5,588
1147,2368.486486,1526.162162,945.7297297,877.6756757,576.5945946,593.8918919
1148,2346.720721,1484.720721,942.3963964,882.9009009,568.1081081,576.2162162
1149,2319.693694,1488.324324,946,881.0990991,564.5045045,572.6126126
1150,2317.621622,1498.324324,938.2702703,887.7297297,563.6756757,588
1151,2324.972973,1473.603604,936.1081081,894.4324324,565.1171171,588
1152,2320.288288,1505.54955,967.0990991,872.3063063,598.1801802,587.6936937
1153,2344.648649,1491.459459,940.2162162,873.7837838,564.3783784,584.9189189
1154,2355.459459,1482.45045,943.8198198,870.1801802,537.3513514,566.9009009
1155,2314.918919,1485.423423,926.8828829,859.7297297,556.5405405,569.4234234
1156,2357.945946,1486,928.5405405,864.0540541,569.0810811,570
1157,2370.054054,1479.423423,947.0990991,860.7387387,562.7927928,572.6306306
1158,2343.423423,1483.81982,954.8828829,856.8828829,559.1171171,576.2342342
1159,2335.945946,1483.567568,936.5405405,865.1891892,561.8378378,582.5945946
1160,2368.738739,1486.09009,931.1351351,871.6756757,559.6756757,567.8198198
1161,2430.216216,1518.108108,946.5045045,858.7747748,559.3153153,542.972973
1162,2504.486486,1550.216216,915.2972973,848.2162162,571.5675676,570.1081081
1163,2479.783784,1514.666667,921.4954955,869.1171171,529.3873874,548.1081081
1164,2533.837838,1581.333333,914.2882883,856.5045045,549.2072072,521.0810811
1165,2539.459459,1528.648649,920.9189189,852.5405405,548.2702703,568.4324324
1166,2587.909091,1535.454545,948.2727273,873.6363636,557.2727273,571.3636364
1167,2673.621622,1550.810811,947.8918919,871.8918919,565.4054054,556.4864865
1168,2706.846847,1596.36036,964.7567568,862.2342342,555.3153153,547.6936937
1169,2714.594595,1633.63964,963.7657658,864.6846847,551.7297297,556.5045045
1170,2719.459459,1645.783784,957.3513514,878.0540541,554.2162162,559.6756757
1171,2737.363636,1672.854545,968.1090909,884.6181818,552.5090909,554.4545455
1172,2803.135135,1734.702703,954.4324324,881.2972973,561.7297297,577.5135135
1173,2816.828829,1777.045045,982.5405405,903.4594595,553.6216216,582.3783784
1174,2905.117117,1827.495495,987.9459459,898.0540541,569.8378378,566.1621622
1175,2979.8,1864,984.4,930.4,566.4,571.4
1176,3081.009009,1864.792793,1028.900901,937.2072072,561.1891892,580.018018
1177,3129.297297,1904.756757,1049.837838,938,557.1891892,590.4324324
1178,3248.418182,1948.8,1064.963636,958.7090909,577.9272727,597.6545455
1179,3346.756757,1998.864865,1092.540541,959.6756757,579.6756757,611.2972973
1180,3388.918919,2047.405405,1094.594595,941.3693694,582.9189189,610.3963964
1181,3462.818182,2087.909091,1074.454545,941.5454545,595.0909091,606.7272727
1182,3583.207207,2112.990991,1089.855856,964.7027027,573.7477477,636.2522523
1183,3623.272727,2090.654545,1100.327273,972.2181818,565.7454545,640.1818182
1184,3732.684685,2150.144144,1034.288288,958.4864865,564.9369369,613.1351351
1185,3849.801802,2153.747748,1041.495495,920.6486486,588.3603604,591.5135135
1186,3979.745455,2238.545455,1063.981818,939.9818182,569.7090909,603.5272727
1187,4085.747748,2312.324324,1047.063063,945.4954955,563.009009,594.036036
1188,4140.181818,2333.309091,1053.090909,951.2363636,588.1818182,570.3636364
1189,4293.63964,2316.126126,1038.774775,939.4774775,586.3603604,582.3423423
1190,4467.981818,2332.6,1022,928.9272727,576.7818182,602.7818182
1191,4598.144144,2373.171171,1011.657658,938.1261261,574.8288288,602.3063063
1192,4735.454545,2398.363636,1008.181818,944.9090909,570.3636364,591.0909091
1193,4842.756757,2429.027027,1042.756757,928.8828829,588.1261261,584.1261261
1194,4827.836364,2370,1030.127273,941.8363636,611.4181818,610.0363636
1195,4826.018182,2370,1053.763636,940.0181818,560.5090909,588.2181818
1196,4890.8,2344.8,1012.6,956.2,576.2,580.8
1197,4914.036036,2287.477477,1056.108108,938.7567568,595.6396396,588.018018
1198,4900.981818,2302.363636,1032.545455,946.7636364,588.6545455,584.3272727
1199,4869.272727,2315.236364,1025.418182,921.0909091,593.8909091,586.9454545
1200,4781.236364,2276.981818,1019.454545,917.8181818,579.9636364,594.2181818
1201,4780.864865,2219.513514,1011.72973,932.8648649,568.0540541,590.2162162
1202,4814.872727,2198.072727,1014,934.6727273,573.9818182,581.3454545
1203,4723.327273,2209.581818,1015.472727,920.7818182,575.4,581.5454545
1204,4747.672727,2175.6,1017.836364,884.2,588.6,574
1205,4719.963964,2064.126126,1004.612613,936.972973,569.7477477,572.2342342
1206,4662.306306,2065.927928,984.7927928,893.7297297,566.1441441,547.009009
1207,4651.272727,2036.327273,929.8909091,871.0545455,546.8,577.4181818
1208,4509.272727,1949.127273,948.5818182,899.2727273,558.0727273,564.8
1209,4428.545455,1890.072727,979.4909091,895.5636364,577.2,558.6181818
1210,4324.8,1858.4,956.4,881.6,562.4,572.4
1211,4156,1797.090909,923.8181818,872.9454545,561.2363636,586.0727273
1212,3980.254545,1747.163636,904.8,864.1454545,574.8363636,586.6545455
1213,3866.363636,1726.363636,895.9272727,859.9272727,572.7272727,563.0181818
1214,3744.218182,1677.018182,907.3090909,856.1818182,563.1636364,533.4545455
1215,3455.854545,1646.254545,918,818.2909091,554,562.5454545
1216,3301.890909,1632.509091,918.5454545,820.5454545,554.2181818,554.6545455
1217,3100.072727,1574.327273,927.6363636,829.6363636,557.8545455,565.5636364
1218,2972.648649,1568.540541,928,847.2972973,566.6486486,567.7297297
1219,2927.486239,1539.926606,898.3669725,854.6788991,546.1651376,544.6055046
1220,2832.945455,1544.436364,925.9272727,829.7454545,545.5272727,546.2909091
1221,2789.2,1522.4,921.6,813.2,552.8,565.6
1222,2731.018182,1512.145455,922.2545455,817.1272727,542.7636364,550.5454545
1223,2667.127273,1507.454545,916.7636364,829.8545455,538.3636364,535.2
1224,2648.072727,1510.290909,901.1272727,844.5454545,545.4181818,548
1225,2629.127273,1538.290909,920.2181818,854.6909091,537.8909091,548.9454545
1226,2589.636364,1495.163636,906.2545455,841.3818182,540.5090909,554.6181818
1227,2563.454545,1501.672727,896.8727273,827.0909091,521.7454545,570
1228,2554.363636,1496.218182,911.4181818,845.2727273,550.8363636,570
1229,2554,1497.745455,912,807.6,546.7636364,564.7636364
1230,2541.376147,1496.422018,889.9082569,820.9357798,557.0458716,540.3302752
1231,2528.2,1540.8,900.8,823.2,569.8,553.6
1232,2528.872727,1564.872727,918.9636364,843.9272727,556.9454545,543.7272727
1233,2525.781818,1505.818182,904.2363636,856.9636364,542.8909091,541.3272727
1234,2529.486239,1497.155963,902.9724771,848.2385321,552.0733945,556.0366972
1235,2557.2,1547.490909,914.1818182,830.4,556.2545455,566.0727273
1236,2574.8,1521.018182,894.6181818,817.5272727,539.6,564.4
1237,2541.009174,1525.651376,913.3394495,827.9449541,552.3669725,554.6055046
1238,2533.872727,1534.490909,911.8,857.6727273,537.7636364,583.9090909
1239,2510.236364,1539.945455,931.8,854.0363636,579.5818182,538.4545455
1240,2558.6,1559.8,923,848.6,583.6,552.4
1241,2555.834862,1619.155963,938.3302752,831.6697248,582.3669725,558.8990826
1242,2559.818182,1552,912.9090909,852.7272727,592.1818182,589.0909091
1243,2569.636364,1529.636364,944,851.8181818,582,589.8181818
1244,2561.889908,1526.293578,940.4770642,855.9082569,578.4036697,590.6055046
1245,2539.018182,1525.563636,931.9090909,870.4909091,572.7272727,580.2363636
1246,2533.027523,1523.724771,944.2385321,874.9908257,568.0183486,574.0366972
1247,2536.363636,1501.272727,943.8181818,865.9272727,583.2363636,586.4363636
1248,2522.12844,1486.862385,953.9633028,855.1926606,592.3669725,578.8990826
1249,2571.381818,1510.454545,934.2181818,852.4727273,574.9272727,617.5090909
1250,2523.486239,1484.770642,906.1651376,856.1100917,553.0458716,583.7798165
1251,2573.027523,1510.458716,911.6697248,859.7798165,587.9082569,576.440367
1252,2567.454545,1556.436364,932.5090909,866.8363636,545.5636364,577.7090909
1253,2604.53211,1542.422018,903.6330275,869.5412844,547.2477064,598.0366972
1254,2596.733945,1516.733945,916.0183486,863.1192661,540.3669725,568.2201835
1255,2604.8,1526,928.4,851.6,532.4,558
1256,2624.220183,1525.669725,912.5321101,844.9724771,543.3577982,543.5045872
1257,2608.927273,1525.963636,913.9454545,844,566.2545455,535.4
1258,2612.623853,1552.183486,925.1009174,856.8990826,578.6422018,537.8165138
1259,2703.633028,1565.321101,910.7889908,872.7522936,567.266055,527.7614679
1260,2767.163636,1547.727273,935.0909091,853.2545455,543.3818182,558.7636364
1261,2741.027523,1562.110092,906.1284404,884.8623853,548.6788991,570.1834862
1262,2708,1630,952,850,534,550
1263,2821.761468,1648.348624,929.9816514,861.0091743,526.6605505,570.1834862
1264,2790.256881,1638.311927,936.3486239,877.0275229,544.3669725,553.6330275
1265,2841.636364,1662.836364,930.5454545,839.7454545,527.1272727,551.4909091
1266,2945.229358,1662.752294,930.6422018,873.559633,541.1376147,545.3944954
1267,2964.880734,1639.504587,918.1284404,872.5688073,548.5321101,543.1559633
1268,2950.972477,1636.899083,938.7155963,872.8256881,543.0275229,547.9633028
1269,2949.87156,1674.422018,964.2201835,868.8807339,541.6513761,561.0825688
1270,2940.036697,1706.055046,951.3761468,848.5504587,532.1100917,564.7522936
1271,2969.8,1699.4,940.0363636,871.5454545,518.8,543.0545455
1272,3073.834862,1729.412844,933.3761468,868.6788991,551.3761468,535.8715596
1273,3010.788991,1797.449541,930.8807339,896.0550459,544.9174312,547.0275229
1274,3045.651376,1740.568807,941.8899083,921.7431193,506.3853211,559.8715596
1275,3047.816514,1694.587156,925.6513761,891.1192661,553.2293578,567.266055
1276,3067.816514,1726.330275,955.3761468,866.5321101,544.7889908,534.9724771
1277,3072,1741.431193,944.1651376,891.7247706,537.5412844,530.9724771
1278,3115.59633,1736.073394,961.7798165,875.5779817,542.6055046,522.7522936
1279,3105.633028,1737.779817,956.6605505,879.3394495,554.0917431,526.0917431
1280,3154.330275,1703.357798,939.0458716,880.1100917,549.1009174,542.8990826
1281,3208.183486,1681.33945,936.4770642,870.4770642,530.5688073,562.2568807
1282,3172.073394,1727.137615,945.9449541,883.9082569,524.6238532,570.6972477
1283,3156,1763.559633,955.0275229,898.5504587,534.9908257,567.9633028
1284,3166.899083,1762.825688,948.6422018,882.3302752,539.6513761,577.0275229
1285,3220.183486,1855.522936,959.853211,885.1559633,549.3211009,564.146789
1286,3200,1828,936,898,564,588
1287,3222.018349,1833.504587,967.1926606,914.5137615,540.146789,554.9724771
1288,3252.648148,1867.703704,996.962963,904.2037037,548.1111111,548.6296296
1289,3303.688073,1890.752294,988.293578,908.0917431,551.5229358,564.7522936
1290,3343.798165,1883.779817,955.4862385,888.2752294,537.0642202,572.7155963
1291,3385.816514,1887.541284,959.8899083,903.0458716,530,572.8073394
1292,3382.366972,1896.055046,973.0275229,905.6146789,538.2201835,565.8348624
1293,3371.211009,1891.963303,968.8256881,904.0733945,539.9633028,554.8256881
1294,3414.851852,1895.259259,960.5925926,909.4444444,537.6296296,550.1111111
1295,3491.669725,1913.247706,972.8623853,901.0091743,545.2477064,559.5045872
1296,3575.192661,1917.559633,1009.688073,929.6146789,543.3944954,573.2293578
1297,3660.888889,1965.777778,1001.111111,926.8888889,563.3333333,569.7777778
1298,3639.743119,1965.394495,1009.33945,917.7798165,542.8807339,567.6330275
1299,3733.321101,2000.256881,992.8256881,912.2752294,564.8990826,558.4587156
1300,3819.926606,2026.40367,1007.688073,910.2568807,560.7706422,587.6330275
1301,3966.12844,2056.825688,986.3302752,906.8440367,542.6422018,588.8440367
1302,4021.962963,2061.148148,998.537037,880.3333333,580.7777778,565.1851852
1303,4032.53211,2087.853211,1041.449541,900.3853211,568.8807339,571.1926606
1304,4101.777778,2122.888889,1066.444444,944.6666667,564.2222222,591.1111111
1305,4193.211009,2179.981651,1075.724771,956.4587156,557.7798165,594.2752294
1306,4234.788991,2224.422018,1089.889908,962.5688073,557.3577982,601.412844
1307,4307.148148,2249.703704,1119.62963,989.2592593,585.2592593,629.5555556
1308,4453.889908,2320.018349,1158,1004.40367,587.5229358,642.1834862
1309,4449.092593,2366.481481,1170.592593,1045.574074,589.1481481,630.6296296
1310,4563.155963,2449.779817,1238.825688,1057.137615,605.6697248,635.6513761
1311,4576,2514,1248,1092,602,654
1312,4672.296296,2528.814815,1259.111111,1082.740741,613.1111111,657.7037037
1313,4683.376147,2562.073394,1280.256881,1060.055046,615.6880734,663.0642202
1314,4644.037037,2534.185185,1287.074074,1091.351852,603.7037037,650.1666667
1315,4676.444444,2543.444444,1269.944444,1057.555556,579.1666667,659.8888889
1316,4682.477064,2513.889908,1228.807339,1050.293578,568.7706422,670.9174312
1317,4628.888889,2437.37037,1176.851852,1031.148148,587.3333333,637.4814815
1318,4572.568807,2403.926606,1125.229358,1000.66055,581.9816514,609.6697248
1319,4503.407407,2403.574074,1092.962963,971.5,565.1111111,604.1296296
1320,4424,2380.611111,1071.5,941.6666667,580.6111111,577.6111111
1321,4387.302752,2366.862385,1034.458716,945.8715596,568.2385321,548.4954128
1322,4250.962963,2312.740741,1027.703704,935.5555556,525.5555556,535.9259259
1323,4165.62963,2289.703704,981.3333333,953.1851852,544.8148148,568.962963
1324,4036,2236,998,918,530,556
1325,3929.577982,2160.770642,990.6605505,857.4495413,535.5045872,543.1559633
1326,3867.759259,2073.111111,949.5555556,882.3333333,532.6296296,548.7407407
1327,3756.555556,1998.055556,937.3888889,863.4074074,550.4444444,526.9444444
1328,3702.388889,1981.388889,940.1666667,862.9444444,510.1666667,529.7222222
1329,3672.330275,1942.66055,935.853211,872.146789,502.293578,538.9174312
1330,3577.296296,1882.555556,947.037037,874.9259259,518.5925926,542
1331,3554.148148,1859.407407,944.2592593,858.2592593,536.1851852,537.3703704
1332,3597.555556,1870.333333,913.5555556,847,529.3333333,537.4444444
1333,3589.333333,1880.925926,907.2222222,857.3703704,509.4444444,538.4444444
1334,3638.555556,1890.703704,935.5185185,855.037037,529.037037,523.9259259
1335,3719,1875.333333,933,848.6666667,529.3333333,530.6666667
1336,3735.296296,1884.777778,928.7407407,834.4074074,541.1851852,535.8518519
1337,3748.256881,1912.477064,936.2201835,858.1100917,494.9541284,553.5229358
1338,3761.100917,1936.330275,947.2293578,863.6146789,542.6605505,529.6697248
1339,3832.611111,1936.277778,948,862.2777778,539.1111111,562.4444444
1340,3870.759259,2046.185185,936.9814815,876.1666667,547.4444444,569.5740741
1341,4026.296296,2031.796296,953.962963,867.1666667,527.1851852,544.3333333
1342,4152.444444,2063.833333,954.3333333,887.5555556,524.3888889,542.9444444
1343,4309.740741,2122.5,964.6851852,896.3518519,533.6481481,544.6111111
1344,4472.666667,2178.388889,992.6851852,886.1111111,539.962963,549.8518519
1345,4600.672897,2249.850467,1001.588785,890.0934579,545.364486,568.0934579
1346,4725.259259,2325.222222,995.6296296,909.6296296,552.1111111,579.8888889
1347,4889.333333,2393.555556,1019.888889,917.7777778,558.7777778,577.6666667
1348,5151.703704,2473.444444,1055.592593,922.1851852,561.9259259,582.4074074
1349,5469.851852,2538.444444,1056.074074,958.3703704,543.9259259,585.8148148
1350,5741.222222,2629.111111,1070.555556,937.8888889,533.4444444,597.7777778
1351,6028.259259,2747.62963,1079.814815,1002.703704,590.8518519,594.0740741
1352,6273.555556,2866.148148,1087.259259,971.3333333,601.0740741,601.2592593
1353,6671.333333,2849.666667,1104.666667,998,590.3333333,600.3333333
1354,7034.149533,2922.168224,1081.943925,990.2056075,586.4672897,606.1308411
1355,7253.944444,2959.888889,1107.333333,972.1111111,584.6111111,610.7777778
1356,7433.592593,3036.722222,1151.777778,987.0925926,608.8148148,616.962963
1357,7620.537037,3098.574074,1154.703704,1009.833333,590.1296296,613.4444444
1358,7745.166667,3139.5,1163.722222,1024.611111,579,624.0555556
1359,7872.429907,3166.392523,1190.411215,1044.056075,602.0186916,642
1360,7982,3208.666667,1226.666667,1091.333333,600.6666667,650
1361,7895.407407,3263.259259,1307.037037,1146.888889,590.1481481,670.6666667
1362,7812.485981,3183.439252,1355.981308,1148.841121,601.2523364,691.4766355
1363,7834.407407,3258.12963,1385.37037,1198.407407,602.5740741,722.3148148
1364,7835.148148,3183.592593,1410.833333,1214.888889,634.7962963,710.0925926
1365,7498.111111,3135.444444,1427.5,1192.666667,610.7222222,711.9444444
1366,7105.439252,3063.28972,1391.738318,1161.17757,600.9345794,695.682243
1367,6809.333333,2887.666667,1281.333333,1098,611.6666667,669
1368,6368.691589,2716.056075,1232.411215,1067.607477,603.271028,651.7383178
1369,5915.277778,2561.5,1142.055556,996.7222222,570.8333333,618.8333333
1370,5447.888889,2430.111111,1079.944444,948.1481481,576.6111111,591.1111111
1371,5028.130841,2274.130841,1041.943925,934.8971963,558.2242991,575.3831776
1372,4713.111111,2142.740741,1013.407407,913.7777778,543.6296296,556.5185185
1373,4418.672897,2065.214953,990.4859813,892,544.1308411,543.6448598
1374,4125.925234,2008.785047,969.8504673,881.6261682,534.1495327,550.1495327
1375,3919.777778,1954.444444,964.7777778,859.2222222,540.8888889,553.5555556
1376,3735.383178,1880.598131,968.7102804,851.1775701,532.2429907,542.411215
1377,3629.388889,1848.111111,947.6666667,848.5555556,513.3333333,544.5555556
1378,3511.252336,1823.345794,899.271028,852.6542056,532.0373832,546.8224299
1379,3472,1814,946,862,504,530
1380,3399.777778,1797.333333,923.7777778,860.1481481,526.2222222,535.5555556
1381,3332.093458,1777.084112,915.1214953,863.4392523,526.2803738,554.9158879
1382,3290.224299,1759.700935,902.8785047,879.8878505,532.3551402,550.0560748
1383,3199.666667,1725.666667,907.2222222,862.3333333,519.5555556,542.2222222
1384,3115.663551,1668.205607,920.4672897,838.2990654,538.8598131,529.5327103
1385,3078.579439,1600.429907,924.8224299,826.4672897,533.1588785,547.5514019
1386,3030.518519,1584.518519,904.2962963,832.2962963,521.037037,549.4814815
1387,2980.336449,1570.186916,890.4859813,822.953271,530.9719626,539.588785
1388,2956.037383,1529.102804,886.0373832,798.1682243,523.6074766,534.8037383
1389,2910.766355,1499.570093,874.4485981,790.728972,503.5327103,525.0841121
1390,2845,1466,876.5,790,521,540
1391,2820.018692,1485.065421,852.2242991,790.317757,516.6168224,545.2523364
1392,2743.757009,1485.962617,841.9813084,765.3457944,534.635514,514
1393,2721.514019,1450.915888,827.4953271,776.3738318,506.5981308,514.1869159
1394,2631.794393,1389.233645,857.4018692,783.8504673,478.5607477,517.9252336
1395,2732.579439,1400.82243,850.6728972,752.8598131,505.4766355,518
1396,2672.907407,1396.944444,848.3148148,763.4814815,491.1481481,489.3518519
1397,2647.588785,1399.102804,832.4859813,773.7570093,492.6542056,513.4766355
1398,2585.757009,1392.897196,829.4205607,760.3738318,501.1028037,510.635514
1399,2522.018692,1390,837.7383178,751.4205607,488.5233645,516.317757
1400,2511.588785,1366.82243,838.5233645,724.5046729,491.588785,520.8411215
1401,2520,1360.280374,841.1401869,713.1962617,502.0560748,520
1402,2499.364486,1365.514019,838.8224299,720,500.411215,515.5140187
1403,2477.065421,1353.102804,829.2336449,734.5607477,504.4299065,503.1028037
1404,2477.551402,1357.88785,826.0934579,768.8037383,507.8317757,498.3551402
1405,2447.308411,1390.485981,824.0186916,775.3457944,482.4672897,514.0186916
1406,2392.35514,1381.140187,830.3738318,728.2429907,472.3738318,518.5046729
1407,2415.383178,1360.728972,828.3551402,742.3738318,473.5140187,512.4859813
1408,2384.018692,1367.570093,805.4766355,774.2242991,471.9065421,516.1121495
1409,2417.663551,1393.738318,863.4205607,777.9626168,503.682243,517.9813084
1410,2382.841121,1336.635514,836.2429907,761.3457944,485.4953271,514.2990654
1411,2319.813084,1316.523364,835.7196262,768.5981308,478.8411215,524.317757
1412,2367.196262,1314,818.5233645,750.9345794,482.7663551,522.8224299
1413,2380.528302,1362.566038,824.3018868,756.3018868,491.3584906,523.4716981
1414,2331.551402,1366.542056,852.2242991,772.1121495,503.4205607,524
1415,2312.859813,1415.88785,834.8411215,757.3457944,511.6448598,521.5700935
1416,2313.831776,1425.981308,835.5140187,753.7570093,504.2429907,533.0093458
1417,2326.299065,1376.35514,851.046729,764.8598131,505.5327103,539.2336449
1418,2313.773585,1373.396226,874.0754717,782.9433962,508.5283019,529.0188679
1419,2283.943925,1399.925234,881.0093458,798.317757,502.2616822,527.682243
1420,2293.88785,1387.271028,848.8037383,779.8878505,511.7383178,539.7383178
1421,2278.934579,1396.990654,887.3084112,763.588785,509.7196262,539.5140187
1422,2290.867925,1358.735849,875.4339623,778.5660377,488.9622642,524
1423,2254.542056,1385.981308,861.7943925,788.7102804,494.411215,525.4392523
1424,2173.495327,1317.196262,859.4766355,758.953271,496.8037383,536.953271
1425,2210.878505,1347.102804,846.3925234,732.7850467,466.8971963,510.7850467
1426,2210.169811,1340.679245,836.8490566,753.9622642,504.4339623,517.3207547
1427,2150.46729,1389.327103,873.4205607,750.8971963,508,504.3925234
1428,2147.850467,1369.738318,861.1588785,768.8411215,531.5514019,487.8691589
1429,2115.132075,1343.113208,874.8867925,768.1886792,504.5849057,518.8679245
1430,2087.401869,1324.056075,846.1682243,777.9439252,492,513.4205607
1431,2089.660377,1361.471698,863.0188679,767.0943396,489.5849057,512.4528302
1432,2155.626168,1407.345794,872.9906542,780.9345794,499.9252336,528.8411215
1433,2165.009346,1398.168224,860.0934579,791.5140187,506.1869159,529.4205607
1434,2164,1384.45283,873.7735849,784.1509434,506.9811321,523.3207547
1435,2241.626168,1429.700935,892.4485981,794.9719626,523.9439252,509.5327103
1436,2260.056604,1471.811321,870.7924528,799.3207547,534.9811321,487.6981132
1437,2252.35514,1447.327103,842.8785047,784.728972,513.7943925,515.0654206
1438,2318.566038,1430.641509,873.6981132,771.6226415,500.6792453,512.6792453
1439,2382.037736,1428.528302,881.0943396,764.9811321,507.1698113,515.3207547
1440,2399.682243,1463.214953,872.8785047,802.5420561,532,510.2242991
1441,2427.719626,1450.130841,854.1869159,778.2429907,532,513.9626168
1442,2452.283019,1435.056604,857.7358491,727.5660377,528.2641509,504.6603774
1443,2454,1461.813084,866.6915888,746.5981308,505.4018692,516.1682243
1444,2470.226415,1464.377358,837.1698113,777.5849057,508.490566,518
1445,2474,1429.283019,878.3018868,780.9811321,517.5471698,539.1320755
1446,2474,1449.813084,873.2523364,780,504.7850467,532.1682243
1447,2466.415094,1484.226415,857.6792453,785.0566038,501.7924528,547.490566
1448,2540.264151,1478.735849,856.3018868,786.8490566,507.4528302,545.0377358
1449,2574.35514,1463.943925,847.7196262,786,521.3084112,524.7476636
1450,2576.45283,1447.509434,847.0566038,777.8490566,513.8867925,529.5849057
1451,2575.886792,1449.811321,864.3396226,765.6226415,492.7924528,549.1698113
1452,2557.849057,1473.886792,876.0377358,749.0943396,505.5471698,537.0188679
1453,2599.102804,1457.514019,874.3925234,731.8504673,523.5140187,506.8037383
1454,2575.54717,1453.377358,860.8679245,753.3018868,505.490566,514
1455,2622.188679,1472.943396,865.6037736,757.6792453,482.9622642,514
1456,2678.320755,1437.245283,871.7169811,758.2830189,493.3962264,516.6981132
1457,2613.415094,1445.358491,851.9056604,775.5471698,538.0188679,538.7735849
1458,2641.716981,1392.528302,850.0188679,726.490566,498.3962264,514.245283
1459,2711.113208,1448.037736,848.1320755,735.3396226,503.6037736,540.1509434
1460,2688.186916,1450.261682,846.2616822,765.5514019,528.3364486,521.1401869
1461,2682.377358,1451.622642,839.509434,753.7735849,502.7924528,543.9622642
1462,2739.358491,1448.981132,853.0943396,728.8679245,503.5471698,512.2641509
1463,2714.716981,1446.603774,842.6415094,751.3207547,512.9811321,488.8301887
1464,2794.792453,1448.566038,859.0943396,758.8679245,498.0377358,516.0754717
1465,2838.301887,1455.849057,855.6226415,765.3584906,486.8301887,524.6415094
1466,2899.735849,1474.792453,860.9056604,759.3207547,488.1132075,500.0377358
1467,2986.528302,1512.528302,864.6792453,756.490566,497.5471698,509.4716981
1468,3034.754717,1536.679245,876.9056604,768.490566,509.3207547,527.2075472
1469,3049.660377,1542.037736,886.1886792,774.8679245,515.4339623,512.7169811
1470,3068.075472,1554.566038,849.0566038,774.5660377,510.754717,518.8301887
1471,3151.849057,1553.283019,860.6792453,764.4528302,503.3207547,533.9245283
1472,3114.867925,1584.226415,837.6603774,772.754717,525.9622642,540.7169811
1473,3194.943396,1559.811321,858.3018868,777.0566038,498.1509434,516.4150943
1474,3189.828571,1508.285714,836.5904762,783.2380952,485.6952381,505.5428571
1475,3212.283019,1536.90566,867.4339623,773.7735849,482.5660377,499.9433962
1476,3221.716981,1567.09434,848.5660377,766.2264151,501.4339623,498.0566038
1477,3260.433962,1544.207547,826.0377358,767.8301887,494.6792453,525.4528302
1478,3276.018868,1572.90566,858.3396226,769.7169811,500.8679245,500.5283019
1479,3205.830189,1589.226415,836.7358491,768.3962264,495.5849057,512.0377358
1480,3198.433962,1626.283019,855.3396226,787.3773585,507.4150943,524.9433962
1481,3229.809524,1611.580952,844.5333333,787.047619,506.4380952,502.9714286
1482,3276.641509,1585.886792,857.8113208,798.1132075,501.4339623,502.2641509
1483,3287.811321,1624.792453,860.6415094,784.9433962,502.3396226,506.8301887
1484,3285.169811,1640.037736,873.0188679,776.3396226,510.3396226,513.3962264
1485,3348,1627.809524,877.6190476,785.8095238,505.5238095,523.8095238
1486,3445.415094,1637.943396,886.0754717,802.7358491,499.0943396,523.754717
1487,3488,1661.45283,908.6415094,801.6037736,504.5283019,523.1509434
1488,3523.828571,1715.028571,879.6571429,778.1714286,510.1714286,522.5714286
1489,3613.09434,1776.113208,850.8679245,806.0377358,521.1320755,513.0943396
1490,3656.45283,1773.698113,877.0566038,826.9433962,503.6603774,541.509434
1491,3715.885714,1756.933333,900.0380952,803.352381,510.3047619,528.3428571
1492,3806.490566,1843.943396,879.0377358,823.4528302,514.490566,509.6603774
1493,4021.809524,1882.47619,888.4761905,834.3809524,535.3333333,524.8571429
1494,4098,1972,898,802,522,542
1495,4288.566038,1964.45283,937.6226415,860.490566,542.754717,562.754717
1496,4425.924528,2027.849057,908.0754717,842.7169811,506.754717,569.3207547
1497,4659.904762,2069.52381,934.1714286,853.4095238,532.1714286,539.8285714
1498,4836.380952,2196.152381,963.7142857,878.1333333,522.1904762,534
1499,5013.283019,2258.90566,978.8301887,872.2264151,528.3018868,561.9622642
1500,5175.085714,2290.571429,995.7142857,885.8285714,530.6285714,566.5142857
1501,5318.283019,2359.415094,1015.90566,912.9622642,509.7735849,574.1132075
1502,5505.619048,2446.285714,1041.428571,927.4857143,528.2095238,585.8095238
1503,5689.698113,2504.075472,1071.962264,931.0566038,543.6603774,573.0943396
1504,5888,2548.666667,1094.666667,942.4761905,538.952381,572.2857143
1505,6109.150943,2610.264151,1133.415094,970.1320755,553.5849057,604.1320755
1506,6276.057143,2678.514286,1167.828571,1003.142857,572.7428571,619.3142857
1507,6414.87619,2750.438095,1178.609524,1025.238095,565.5809524,604.7619048
1508,6550.754717,2835.339623,1236.018868,1049.509434,555.6603774,610.0377358
1509,6568.304762,2878.857143,1261.2,1102.571429,576.8761905,653.3904762
1510,6533.942857,2835.428571,1309.428571,1127.714286,577.2571429,694
1511,6433.132075,2842.924528,1383.754717,1138.943396,568.9056604,693.0188679
1512,6184.8,2777.066667,1380,1162.133333,605.2,683.3333333
1513,5997.333333,2762.095238,1352.495238,1191.27619,620.7809524,647.4857143
1514,5864,2666.857143,1377.257143,1155.085714,559.8285714,721.7714286
1515,5507.104762,2571.619048,1342.895238,1105.961905,574.6285714,677.8095238
1516,5212.415094,2496.301887,1270.566038,1096.792453,549.9622642,649.6981132
1517,4926.285714,2436.857143,1260,1032.114286,552.552381,641.0857143
1518,4689.942857,2296.4,1202.914286,997.9428571,530.8571429,609.1428571
1519,4389.904762,2223.257143,1167.180952,939.8857143,531.2380952,591.3142857
1520,4209.447619,2124.8,1084.266667,956.5142857,543.4666667,577.1809524
1521,4032.264151,2055.358491,1041.773585,935.3962264,521.8490566,573.245283
1522,3854,1979.714286,998,907.4285714,502.5714286,563.7142857
1523,3767.333333,1929.714286,969.047619,857.9047619,489.5238095,530.8571429
1524,3662.571429,1901.142857,936.6666667,828.3809524,487.6190476,518.4761905
1525,3550,1864,904.2857143,840.2857143,492.5714286,518
1526,3511.142857,1842.666667,888.6666667,814.3809524,475.8095238,504.2857143
1527,3432.666667,1815.333333,863.3333333,784,462,510
1528,3343.142857,1772.285714,873.4285714,787.4285714,475.7142857,510
1529,3339.333333,1747.52381,850.0952381,760.2857143,479.047619,496.1904762
1530,3386.952381,1719.714286,847.047619,772.0952381,471.8095238,487.047619
1531,3404.571429,1739.428571,853.7142857,762.2857143,455.1428571,497.4285714
1532,3375.809524,1711.238095,816.952381,749.1428571,462.7619048,480.0952381
1533,3296.952381,1701.333333,824.8571429,722.5714286,469.6190476,462.8571429
1534,3276,1648,802,734,462,480
1535,3346.47619,1663.238095,822.952381,758.7619048,479.1428571,476.1904762
1536,3398.857143,1562.666667,811.3333333,711.1428571,474.5714286,488.6666667
1537,3320,1612,810,688.8571429,480.8571429,462.5714286
1538,3304.365385,1564.788462,800.1923077,700.7115385,455.8461538,467.8076923
1539,3297.828571,1570.514286,805.7142857,722.5142857,445.3714286,476.1714286
1540,3284.419048,1561.52381,809.447619,713.5238095,448.3428571,460.6285714
1541,3224.552381,1516.780952,797.8285714,699.8857143,455.4095238,470.2285714
1542,3230.685714,1482.914286,784.4571429,683.4285714,455.4857143,475.4857143
1543,3176.8,1469.352381,793.9428571,691.1047619,450.5142857,478.647619
1544,3068,1422.923077,794.3076923,704.1538462,439.3846154,474.4615385
1545,3070.514286,1419.67619,783.0285714,706.9904762,431.0095238,451.1619048
1546,3028,1430.72381,794.3238095,713.3714286,438.952381,451.9047619
1547,2921.6,1402.8,797.6,720.8,445.2,458.8
1548,2936.711538,1420.365385,782.4038462,714.1730769,435.8653846,448.0961538
1549,2916,1434.914286,791.4857143,694.3428571,437.0285714,470.6285714
1550,2868,1413.733333,778.5333333,687.8666667,446.9333333,470.9333333
1551,2854.730769,1438.038462,759.7692308,704.4423077,443.1153846,470.2115385
1552,2820.666667,1409.638095,769.9809524,707.0857143,443.6190476,476.9142857
1553,2882.8,1412.8,788.5333333,710.9333333,460,470.4
1554,2908.461538,1445.730769,791.3076923,702.4423077,456.5384615,459.1346154
1555,2853.333333,1462.761905,785.9047619,688,421.6190476,450.6666667
1556,2920,1438,824,728,454,464
1557,2879.615385,1443.769231,779.7692308,697.2307692,434.7692308,479.3846154
1558,2892.628571,1447.657143,792.6285714,690.5142857,459.6,436.1142857
1559,2939.066667,1517.333333,811.3333333,721.2,429.0666667,463.2
1560,2919.538462,1498.230769,787.5384615,729.3076923,447.1538462,471.3076923
1561,2937.428571,1510.742857,808.552381,714.3809524,431.6952381,476.6857143
1562,2969.173077,1529.326923,814.5192308,732.2115385,457.0961538,494.2884615
1563,2940.457143,1549.295238,822.3428571,756.6857143,442.9714286,470.8
1564,2964.538462,1545.538462,818.1538462,761.3846154,434.6153846,482.8461538
1565,2894.571429,1560.72381,831.0666667,764.8761905,437.2190476,489.9047619
1566,2850.75,1561.519231,832.9230769,762.3269231,448.2115385,480.3269231
1567,2844.019231,1565.75,845.0384615,775.9807692,453.8846154,482.3461538
1568,2809.542857,1572.171429,851.3142857,783.2571429,447.1428571,486.0571429
1569,2796.192308,1560.692308,832.0384615,775.7692308,451.7307692,483.1153846
1570,2801.6,1547.6,844.4,777.2,464.8,477.2
1571,2801.557692,1540.846154,868.75,786.6730769,470.9807692,480.6730769
1572,2800.384615,1544.730769,865.3269231,797.75,478.0961538,496.1923077
1573,2789.019231,1553.153846,880.0576923,773.8653846,458.9423077,483.5384615
1574,2807.714286,1572,844.4761905,758.4761905,426.6666667,471.047619
1575,2820.615385,1550,851,772.3076923,442.2307692,472.6153846
1576,2784.461538,1581.538462,864.6153846,814.1538462,421.0769231,490.7692308
1577,2701.461538,1527.461538,829.3076923,763.9230769,438.6923077,485.3846154
1578,2634.933333,1549.580952,868.3238095,792.0190476,442.9333333,496.6095238
1579,2619,1495.365385,848,768.3461538,430.3461538,503.3653846
1580,2519,1474.211538,848,779.8846154,441.8846154,482.2115385
1581,2441.846154,1420.692308,817.5384615,743.8269231,480.0769231,483.9038462
1582,2284.538462,1355.884615,836.0961538,725.5576923,465.5576923,460.25
1583,2261.333333,1344.8,808.5333333,717.0666667,432.8,470.1333333
1584,2220.307692,1315.884615,810.6153846,707.7307692,424.6923077,465.3846154
1585,2155.230769,1292.653846,796.2307692,694.9615385,428.7307692,440.3461538
1586,2093.5,1280.5,807,686,434.5,444.5
1587,2117.4975,1249.737692,802.8738077,675.8294038,443.9436154,432.2259038
1588,2163.3475,1250.462692,791.5164038,662.6914231,452.8043846,437.6677308
1589,2173.841923,1281.390192,791.0995385,673.5552885,453.4802308,443.62325
1590,2184.715,1273.726346,797.3928654,692.0684423,459.4464423,465.3591346
1591,2263.881346,1287.2,804.9533462,699.2705769,462.1308269,483.338
1592,2343.910769,1337.233269,806.9580577,693.7455577,456.9293654,491.8160385
1593,2393.958846,1379.819808,801.9835385,693.3974808,465.7409038,498.2785385
1594,2474.489038,1405.357115,803.8315577,715.4383077,476.6191538,513.9242885
1595,2581.416346,1427.803269,814.6507308,724.4391154,474.1350577,528.4914231
1596,2679.5275,1461.984038,817.5263846,725.3525,477.9672308,529.4047885
1597,2740.317115,1503.291731,824.8408462,755.5144038,491.6556346,543.1725577
1598,2759.345,1530.063846,843.20575,753.2715192,518.1725577,549.34525
1599,2798.6525,1518.865,831.3815,758.2185,537.22975,555.473
1600,2769.953269,1532.817115,838.5829808,777.7424231,516.9606154,564.5255
1601,2732.222308,1501.231538,821.6235577,789.4027115,537.6944423,553.2720962
1602,2736.875631,1518.063592,816.8180291,782.7496117,563.4543204,576.059767
1603,2703.765865,1516.919808,833.8114615,772.7935192,553.3073558,592.1748846
1604,2675.495385,1490.852115,841.0761154,767.4496058,555.7638942,577.5682596
1605,2681.234808,1481.516635,811.5005096,790.3651731,537.5402212,574.5401635
1606,2676.061731,1455.737788,841.7841635,752.0709423,546.3142596,596.8122788
1607,2700.217404,1489.644519,817.2199135,756.9454712,569.8707115,597.5585577
1608,2737.466214,1488.390874,813.3639515,757.7173592,551.9425534,607.9187864
1609,2738.491923,1452.357308,808.8652308,760.0865385,572.0361538,582.4354231
1610,2730.792308,1450.397692,797.7089231,762.7152308,574.3017692,606.894
1611,2734.156923,1481.606538,803.1489615,784.0289615,590.4231154,629.0737308
1612,2756.39068,1491.257864,784.0292136,787.5109612,581.8976505,628.7477767
1613,2723.078942,1497.142308,779.7331058,783.9175962,586.218875,633.9087981
1614,2684.414904,1499.040192,799.2415096,785.6521923,589.1149615,650.6307404
1615,2649.428641,1500.985922,802.6791456,768.6493592,602.7171068,673.5058252
1616,2589.6225,1464.614615,794.59975,767.0699038,622.3178462,657.4588269
1617,2530.136346,1465.622885,795.8896731,763.9585385,615.7199808,646.9873269
1618,2489.448252,1453.560583,785.845165,772.3931553,602.1219709,654.5097282
1619,2453.261154,1430.391538,779.7897692,780.3614423,615.2463365,669.0124615
1620,2420.959515,1430.367864,778.8546408,786.3439612,629.4669126,684.5128641
1621,2402.482308,1421.211538,783.0909231,803.9255385,633.2163077,690.7093077
1622,2386.511538,1418.113077,809.9804615,817.2505,640.3424231,691.621
1623,2384.346602,1429.103592,815.5061262,819.2300874,645.9143592,688.6472621
1624,2385.67,1437.119327,801.0646442,811.5250673,653.7328077,693.7579231
1625,2373.900291,1456.498738,815.911,804.0713398,662.944,718.1764854
1626,2417.168654,1459.904423,803.6739808,818.636,672.8133269,725.0294615
1627,2433.92835,1483.449126,817.1189709,845.6306602,683.7229223,725.5132816
1628,2454.359806,1505.498058,834.7358835,852.5769709,670.8250777,723.3460874
1629,2430.741154,1501.876923,829.9912308,842.2948462,676.1161923,730.9086154
1630,2459.455825,1516.011845,844.1377864,839.4123689,673.1772427,740.2375243
1631,2502.1725,1553.74875,857.327625,848.773875,685.6145,765.766625
1632,2563.84699,1566.091165,856.3256505,856.8626893,710.6882233,742.5080583
1633,2623.309903,1588.623786,865.7204078,883.3240291,706.4037184,772.144835
1634,2750.311538,1593.490481,878.0232596,892.1744423,709.9970481,760.0409327
1635,2839.696154,1608.173173,883.7319135,901.0225192,714.0653173,764.6053558
1636,2944.530388,1682.810291,870.5902816,909.741301,703.210233,777.1211553
1637,3042.064369,1694.534563,893.0587864,924.3287573,745.5794757,801.936301
1638,3175.984904,1764.490769,914.5727212,927.5587596,733.635,805.476
1639,3371.767767,1845.497184,926.5776602,944.639,738.6887184,798.5494466
1640,3572.174951,1885.597184,954.5223786,957.4363398,761.2873786,797.5689417
1641,3709.305481,1892.792308,959.7962788,986.4994038,786.2616731,833.0188462
1642,3869.523592,1946.432136,976.3552816,1007.93699,781.6443398,846.3137282
1643,4026.771359,2021.572718,995.230233,999.8329515,773.2884175,854.2958641
1644,4182.883398,2059.60767,1024.169126,1014.714078,794.7340777,877.8375437
1645,4300.668835,2140.211553,1027.563301,1045.943495,798.6960194,878.9443398
1646,4365.87875,2167.794135,1055.774519,1058.794712,797.0372692,872.3760577
1647,4392.130388,2166.842621,1090.692233,1071.439126,807.8239709,870.5761456
1648,4383.92068,2153.164951,1102.435922,1094.450777,817.0171748,894.4477961
1649,4283.557476,2115.723592,1111.751845,1106.600777,817.194835,918.7805437
1650,4114.181748,2082.26301,1131.081165,1102.232621,824.6962913,912.0872427
1651,3932.558932,2061.068835,1142.738544,1090.662816,834.0996311,909.8519903
1652,3752.768252,2023.863398,1115.453495,1076.251553,825.7489903,921.8058544
1653,3539.008058,1953.353204,1082.402039,1058.16466,825.6658835,925.2809029
1654,3299.888641,1885.676505,1067.915049,1050.772233,838.284233,926.3181068
1655,3094.225534,1846.644757,1042.35068,1051.434563,835.3883981,923.4364854
1656,2911.515243,1806.908058,1015.995301,1038.264078,837.2424175,918.9027379
1657,2751.941553,1764.083495,976.813,1029.257282,837.2400097,926.5150777
1658,2583.489126,1726.345631,954.5461068,1010.549806,834.0189417,934.0200291
1659,2457.728058,1704.39466,942.6502816,989.8194466,853.5295728,932.6066019
1660,2352.011942,1676.62301,919.0065146,991.5966893,857.057767,945.0096699
1661,2265.411359,1636.120388,918.5577573,993.3580874,867.365835,937.7494854
1662,2206.228058,1630.34699,924.7959709,966.9680485,869.9871165,946.2317184
1663,2134.857184,1605.927573,916.2386893,988.1679029,883.1124078,959.7712816
1664,2088.78534,1602.832816,915.0342621,987.7501165,882.4901165,969.5430874
1665,2064.881359,1604.338252,927.3054757,978.193835,876.0811262,976.5996796
1666,2014.885882,1564.001765,919.8067647,964.5838235,862.9549412,949.8119412
1667,2010.085631,1594.786893,912.4895243,960.9071748,887.5676311,966.1233107
1668,2007.273786,1571.948058,906.5882621,981.2688058,884.1208252,983.0755922
1669,1959.652427,1572.753883,874.5144757,982.5493883,881.9033495,994.5348155
1670,1943.35301,1597.802816,904.100767,985.3475437,886.6001068,1022.485631
1671,1960.380194,1580.624175,876.8930485,996.6731748,915.9221456,1012.038835
1672,1960.337647,1563.258627,921.3676471,973.4568824,917.0153529,1009.218039
1673,1943.393301,1596.823495,926.9237379,982.8682816,914.7840194,1016.080194
1674,1955.565728,1587.391845,901.6020485,1008.479631,938.8286408,1008.830777
1675,1908.796019,1599.530097,918.1629806,1003.352718,939.7853398,1022.984563
1676,1892.392647,1584.107059,931.0530882,996.5552059,975.0077941,1051.64
1677,1936.284757,1608.922524,906.8652427,1006.839748,968.463932,1074.801359
1678,1908.045534,1617.600583,916.3570485,1021.700485,960.7790388,1070.334175
1679,1893.759804,1609.550196,933.5016863,1018.905196,949.6975882,1072.389216
1680,1924.050583,1587.981359,918.5202136,1036.042427,952.4695049,1049.858544
1681,1918.58301,1610.900583,933.6601748,1013.274932,963.8011553,1049.002621
1682,1882.226471,1621.546961,951.3564902,1021.535657,968.6473627,1085.133137
1683,1875.822136,1634.968447,933.8263204,1036.569806,970.191068,1089.423301
1684,1897.642353,1641.791176,944.7828824,1056.682941,975.3305882,1093.476471
1685,1914.203689,1666.28165,930.4949029,1058.790097,985.882699,1082.259126
1686,1913.270784,1689.863627,938.5702941,1055.338431,999.8942353,1090.731961
1687,1897.374563,1672.47,956.6015631,1053.809223,1013.301165,1121.990388
1688,1883.678627,1677.577843,967.3100392,1066.685294,1025.663529,1116.625882
1689,1895.355243,1696.393301,980.6459612,1073.526893,1030.594951,1111.066602
1690,1924.481471,1708.962647,973.2563824,1059.300294,1033.090882,1134.125882
1691,1935.242718,1726.058252,962.4660194,1069.165049,1036.427184,1143.242718
1692,1901.339806,1693.980583,944.9514563,1093.281553,1025.048544,1138.116505
1693,1878.912621,1668.640777,961.5533981,1108.524272,1031.553398,1160.834951
1694,1906.485437,1688.368932,975.3009709,1087.786408,1046.543689,1153.76699
1695,1921.666667,1723.215686,956,1083.666667,1025.45098,1118.196078
1696,1946.524272,1691.242718,956.5242718,1100.135922,1015.572816,1159.805825
1697,1925.631068,1716.252427,962.6601942,1077.067961,1019.067961,1152.194175
1698,1861.786408,1753.262136,971.0679612,1077.262136,1017.631068,1165.184466
1699,1901.048544,1753.76699,947.1456311,1088.951456,1025.048544,1160.601942
1700,1908.038835,1705.902913,957.631068,1088.660194,1026.504854,1152.543689
1701,1919.300971,1761.203883,937.592233,1112.737864,1011.359223,1144.23301
1702,1914.882353,1732.941176,976.4705882,1088.529412,1051.294118,1145.117647
1703,1922.640777,1661.76699,939.592233,1092.23301,1042.776699,1135.048544
1704,1904.23301,1687.941748,935.3980583,1069.242718,1027.009709,1120.058252
1705,1910.621359,1735.902913,969.5728155,1099.805825,1051.941748,1073.067961
1706,1972.757282,1726.194175,926.8543689,1080.38835,1046.116505,1179.864078
1707,1954.970874,1724.097087,926,1083.805825,1013.650485,1166.776699
1708,1888.803922,1716.54902,944.627451,1072.823529,1051.117647,1164.137255
1709,1902.058252,1723.223301,956.8349515,1050.330097,1055.805825,1167.61165
1710,1945.941748,1751.961165,954.5048544,1084.699029,1057.747573,1157.514563
1711,1887.176471,1706.529412,957.4117647,1107.058824,1040.941176,1120.176471
1712,1902.407767,1727.708738,966.2524272,1105.048544,1052.854369,1133.805825
1713,1898.446602,1748.330097,950.4854369,1086.485437,1048.038835,1125.262136
1714,1871.215686,1717.921569,953.745098,1072.705882,1039.803922,1128.196078
1715,1864,1675.106796,973.9417476,1081.961165,1033.514563,1140.466019
1716,1888.666667,1690.117647,965.4901961,1104.862745,1033.45098,1135.294118
1717,1904.990291,1698.601942,985.1650485,1070.058252,1028.407767,1126.407767
1718,1901.300971,1671.203883,987.961165,1057.359223,1039.398058,1153.475728
1719,1899.294118,1683.882353,956.8235294,1088.470588,1040.823529,1158.941176
1720,1875.145631,1707.941748,945.7281553,1081.631068,1050.427184,1161.456311
1721,1848.039216,1696.058824,949.1960784,1084.745098,1038.862745,1146.862745
1722,1853.747573,1704.621359,951.1456311,1096,1043.184466,1129.417476
1723,1853.019608,1728.784314,946.5098039,1076.235294,1049.411765,1162.235294
1724,1861.825243,1730.757282,973.4563107,1074.679612,1053.436893,1177.320388
1725,1859,1713,967,1092,1052,1162
1726,1840.951456,1669.553398,943.4174757,1099.805825,1055.320388,1144.776699
1727,1827.568627,1640.509804,958.7058824,1086.862745,1059.176471,1133.411765
1728,1809.137255,1631.333333,968.9019608,1076.352941,1033.058824,1146.039216
1729,1806.368932,1634.834951,967.3980583,1085.106796,1014.368932,1145.029126
1730,1801.705882,1655.764706,939,1078.764706,1012,1132.764706
1731,1812.509804,1645.431373,913.6470588,1077.098039,1017.078431,1144.156863
1732,1816.252427,1657.242718,920.9514563,1073.359223,1026.679612,1147.048544
1733,1786.54902,1648,949.372549,1066.588235,1034.901961,1119.882353
1734,1781.647059,1660.941176,945.6470588,1055.411765,1044.705882,1124
1735,1731.728155,1663.184466,947.6116505,1083.980583,1027.106796,1116.38835
1736,1806.980392,1591.882353,962.6078431,1095.588235,1015.960784,1110.215686
1737,1802.333333,1612.705882,945.0980392,1081.54902,1024.705882,1151.294118
1738,1782.932039,1624.854369,945.2621359,1078.368932,1030.330097,1136.699029
1739,1800.470588,1637.411765,954.4705882,1070.588235,1011.058824,1125.176471
1740,1757.568627,1639.921569,936.1176471,1058.666667,991.7647059,1158.588235
1741,1772.862745,1621.294118,929.0196078,1036.862745,1013.372549,1114.588235
1742,1806.588235,1641.294118,952.2352941,1077.411765,1022.705882,1151.529412
1743,1737.568627,1636.980392,979.4901961,1056.039216,1027.019608,1117.803922
1744,1751.533981,1644.757282,939.3980583,1037.378641,1018.776699,1116.15534
1745,1745.803922,1628.431373,954.7254902,1032.058824,1026.627451,1118.490196
1746,1742.705882,1599.352941,929.7647059,1072.588235,999.0588235,1127.117647
1747,1766.137255,1643.862745,922.1176471,1091.470588,968.0196078,1098.27451
1748,1779.862745,1630.137255,933.8823529,1038.529412,969.9803922,1125.72549
1749,1725.647059,1622.235294,901,1071,1045.705882,1085.235294
1750,1739.215686,1593.470588,936.1372549,1070.098039,1011.862745,1116.333333
1751,1738.137255,1597.588235,941.7254902,1014.117647,989.5098039,1084.470588
1752,1763.529412,1607.117647,894.5882353,1042.823529,1017.176471,1109.352941
1753,1764.215686,1558.039216,906.0588235,1031.72549,1016.431373,1138.764706
1754,1751.784314,1546.764706,944.6470588,1024.764706,1010.764706,1091.392157
1755,1770.470588,1621.058824,914.1764706,1035.941176,996.3529412,1097.647059
1756,1715.666667,1637.333333,936.3333333,1034.666667,1012.333333,1096.666667
1757,1699.117647,1624.980392,914.3333333,1034,1006.235294,1084.607843
1758,1690.058824,1604.529412,925.4705882,1056.235294,1023.058824,1101.058824
1759,1726.72549,1600,940.8431373,1065.098039,1023.352941,1085.862745
1760,1700.254902,1601.509804,904.745098,1052.411765,991.8039216,1107.176471
1761,1718.882353,1606.411765,912.5882353,1050.941176,993.7647059,1074.823529
1762,1707.098039,1597.980392,901.3921569,1057.72549,1012.313725,1088.627451
1763,1702.176471,1588.431373,909.3137255,1048.862745,997.1176471,1090.254902
1764,1704,1576.529412,910.5882353,1038.588235,990.7058824,1090.058824
1765,1709.306931,1569.346535,911.980198,1024.059406,973.4257426,1098.633663
1766,1668,1544.705882,899.7647059,1059.411765,984.7058824,1090.352941
1767,1655.294118,1559.607843,888.2352941,1051.882353,1006.039216,1114.117647
1768,1685.098039,1595.45098,910.3137255,1036.431373,991.3333333,1102.823529
1769,1700,1553.882353,904.8235294,1052.117647,994.4705882,1111.058824
1770,1664.39604,1541.267327,885.4059406,1047.069307,984.1782178,1098.990099
1771,1689.411765,1564.470588,904.3529412,1040.470588,968,1096.117647
1772,1701.960784,1573.392157,920.9215686,1031.058824,980.9411765,1118.470588
1773,1679.039216,1561.372549,918.9607843,1029.352941,989.9215686,1105.294118
1774,1687.069307,1535.90099,930.1188119,1044.059406,994.0594059,1098.09901
1775,1644,1545.607843,929.254902,1040.196078,989.2156863,1110.941176
1776,1631.529412,1588.588235,897.1764706,1022.470588,978,1090.470588
1777,1680.554455,1603.980198,899.6831683,1027.663366,989.8415842,1064.910891
1778,1665.705882,1572.588235,906.8235294,1041.352941,986.3529412,1061.588235
1779,1641.70297,1571.841584,895.3267327,1027.782178,971.6633663,1091.762376
1780,1650.588235,1575.176471,895.4117647,1003.294118,985.2941176,1109.529412
1781,1636.470588,1553.607843,876.1960784,1009.176471,985.2941176,1076.980392
1782,1628.594059,1577.227723,893.5049505,1038.237624,984.7722772,1084.970297
1783,1661.490196,1557.294118,906.8823529,1034.176471,987.2941176,1078.705882
1784,1642.237624,1541.306931,918.3762376,1031.069307,982.3960396,1091.227723
1785,1643.333333,1538,910.6666667,1016.666667,987.3333333,1088.666667
1786,1631.50495,1551.108911,917.029703,1027.940594,956.0990099,1090.19802
1787,1649.568627,1576.45098,901.3921569,1054.960784,966.5882353,1080.784314
1788,1633.663366,1556.891089,898.2772277,1043.405941,986.7920792,1081.445545
1789,1612.392157,1577.294118,897.2941176,1028.705882,965.5294118,1078.470588
1790,1622.970297,1586.514851,909.0891089,1012.792079,998.0594059,1053.663366
1791,1619.019608,1588,913.0980392,1004.745098,998.6078431,1075.392157
1792,1605.524752,1591.188119,893.9009901,1041.267327,986.5544554,1095.188119
1793,1579.148515,1589.80198,884.3564356,1031.128713,989.8019802,1099.90099
1794,1621.470588,1536.941176,902.0588235,1026.352941,947.6470588,1078
1795,1650.475248,1515.168317,910,1021.128713,961.9009901,1074.990099
1796,1610.588235,1561.764706,906.1176471,1025.294118,992.8235294,1069.764706
1797,1581.70297,1510.19802,883.5643564,1024.534653,980.8514851,1104.09901
1798,1604.574257,1494.752475,864.1584158,1035.326733,998.6732673,1094
1799,1573.920792,1529.485149,890.7722772,1018.059406,1010.39604,1095.663366
1800,1648,1576,908,1006,988,1106
